##input
##{
##time_step=0.5;
##time_end = 800;
##Gamma_l =0.5;  //also Gamma_l is square root of the decay
##Gamma_m =0.50;
##Gamma_r =0.5;
##Nbin =2;
##svdcutoff = 1E-11;
##maxnumberofSV = 5000;
##feedback_time = 8; //ATTENTION avoid feedback 2, avoid feedback times uneven
##init_000 = 0.; 
##init_001 = 0.*0.57735027; 
##init_010 = 0.*0.57735027; 
##init_011 = 0.57735027; 
##init_100 = 0.*0.57735027; 
##init_101 = 0.57735027; 
##init_110 = 0.57735027;//70710678118; 
##init_111 = 0.0;//70710678118; 
##phi_l = 0.0;  // as multiple of pi // in case of fb=0 phase on the coupling element
##phi_m = 0.0;  // as multiple of pi
##phi_r = 0.0;  // as multiple of pi
##}
##// =ATTENTION feedback counts between left and right, middle is half the feedback, effective first feedback effect after fb/2
##// =ATTENTION exclude feedback time of 2, i.e. no distance between left - middle - right bin
##// =ATTENTION exclude uneven feedback times of 2n+1, i.e. asymmetric swap necessary between left - middle - right bin
##// =ATTENTION exclude complex valued initial states, not yet implemented
##
##// 1./sqrt(2.) = 0.70710678118
##// 1./sqrt(3.) = 0.57735027
0.0000000000 	 0.6666666685 	 0.6666666685 	 0.6666666685 	 1.0000000000 
0.5000000000 	 0.5134341093 	 0.5134341093 	 0.5134341093 	 1.0000000226 
1.0000000000 	 0.3954218748 	 0.3954218748 	 0.3954218748 	 1.0000000344 
1.5000000000 	 0.3045346149 	 0.3045346148 	 0.3045346149 	 1.0000000414 
2.0000000000 	 0.2345376860 	 0.2345376859 	 0.2345376860 	 1.0000000455 
2.5000000000 	 0.1495540133 	 0.1210882681 	 0.1495540132 	 1.0000000479 
3.0000000000 	 0.1003295638 	 0.0752333209 	 0.1003295637 	 1.0000000486 
3.5000000000 	 0.0736208016 	 0.0711229597 	 0.0736208016 	 1.0000000491 
4.0000000000 	 0.0603580379 	 0.0879368982 	 0.0603580379 	 1.0000000497 
4.5000000000 	 0.0581643084 	 0.1106809349 	 0.0581643084 	 1.0000000503 
5.0000000000 	 0.0714044689 	 0.1280479730 	 0.0714044689 	 1.0000000510 
5.5000000000 	 0.0845149941 	 0.1354556104 	 0.0845149937 	 1.0000000516 
6.0000000000 	 0.0911941654 	 0.1332577206 	 0.0911941654 	 1.0000000522 
6.5000000000 	 0.0886629363 	 0.1185281642 	 0.0886629364 	 1.0000000528 
7.0000000000 	 0.0781235758 	 0.0943261595 	 0.0781235759 	 1.0000000532 
7.5000000000 	 0.0646306540 	 0.0713661132 	 0.0646306540 	 1.0000000534 
8.0000000000 	 0.0519614398 	 0.0553525051 	 0.0519614396 	 1.0000000536 
8.5000000000 	 0.0429264723 	 0.0474274471 	 0.0429264718 	 1.0000000537 
9.0000000000 	 0.0392633048 	 0.0457101003 	 0.0392633046 	 1.0000000536 
9.5000000000 	 0.0401578268 	 0.0471716671 	 0.0401578276 	 1.0000000536 
10.0000000000 	 0.0436021964 	 0.0491568548 	 0.0436021976 	 1.0000000537 
10.5000000000 	 0.0474465142 	 0.0500024650 	 0.0474465153 	 1.0000000537 
11.0000000000 	 0.0500971971 	 0.0491085636 	 0.0500971980 	 1.0000000538 
11.5000000000 	 0.0508085650 	 0.0468338474 	 0.0508085656 	 1.0000000538 
12.0000000000 	 0.0496391255 	 0.0441333823 	 0.0496391260 	 1.0000000538 
12.5000000000 	 0.0471707904 	 0.0420105392 	 0.0471707907 	 1.0000000538 
13.0000000000 	 0.0442150490 	 0.0411072371 	 0.0442150494 	 1.0000000539 
13.5000000000 	 0.0415378725 	 0.0415422693 	 0.0415378735 	 1.0000000539 
14.0000000000 	 0.0396159862 	 0.0429769872 	 0.0396159864 	 1.0000000539 
14.5000000000 	 0.0385569948 	 0.0448268912 	 0.0385569942 	 1.0000000539 
15.0000000000 	 0.0381797388 	 0.0464938774 	 0.0381797376 	 1.0000000539 
15.5000000000 	 0.0381705088 	 0.0475446744 	 0.0381705091 	 1.0000000539 
16.0000000000 	 0.0382330793 	 0.0478068698 	 0.0382330783 	 1.0000000539 
16.5000000000 	 0.0381813566 	 0.0473603147 	 0.0381813551 	 1.0000000539 
17.0000000000 	 0.0379652780 	 0.0464463503 	 0.0379652766 	 1.0000000538 
17.5000000000 	 0.0376423429 	 0.0453516266 	 0.0376423419 	 1.0000000538 
18.0000000000 	 0.0373187128 	 0.0443141907 	 0.0373187116 	 1.0000000537 
18.5000000000 	 0.0370913911 	 0.0434757693 	 0.0370913888 	 1.0000000537 
19.0000000000 	 0.0370118052 	 0.0428797924 	 0.0370118006 	 1.0000000537 
19.5000000000 	 0.0370757208 	 0.0424994029 	 0.0370757179 	 1.0000000537 
20.0000000000 	 0.0372350207 	 0.0422755756 	 0.0372350264 	 1.0000000537 
20.5000000000 	 0.0374212454 	 0.0421501971 	 0.0374212489 	 1.0000000537 
21.0000000000 	 0.0375702728 	 0.0420857372 	 0.0375702747 	 1.0000000537 
21.5000000000 	 0.0376400618 	 0.0420695220 	 0.0376400618 	 1.0000000537 
22.0000000000 	 0.0376175840 	 0.0421060551 	 0.0376175843 	 1.0000000537 
22.5000000000 	 0.0375154622 	 0.0422039768 	 0.0375154605 	 1.0000000537 
23.0000000000 	 0.0373620335 	 0.0423643717 	 0.0373620310 	 1.0000000537 
23.5000000000 	 0.0371896668 	 0.0425747835 	 0.0371896649 	 1.0000000537 
24.0000000000 	 0.0370253953 	 0.0428100643 	 0.0370253936 	 1.0000000537 
24.5000000000 	 0.0368860151 	 0.0430383872 	 0.0368860123 	 1.0000000536 
25.0000000000 	 0.0367777390 	 0.0432293286 	 0.0367777353 	 1.0000000536 
25.5000000000 	 0.0366990161 	 0.0433608714 	 0.0366990129 	 1.0000000536 
26.0000000000 	 0.0366445377 	 0.0434232293 	 0.0366445354 	 1.0000000535 
26.5000000000 	 0.0366086774 	 0.0434189929 	 0.0366086755 	 1.0000000535 
27.0000000000 	 0.0365874253 	 0.0433603023 	 0.0365874223 	 1.0000000535 
27.5000000000 	 0.0365787126 	 0.0432645491 	 0.0365787077 	 1.0000000534 
28.0000000000 	 0.0365816319 	 0.0431500841 	 0.0365816280 	 1.0000000534 
28.5000000000 	 0.0365952646 	 0.0430330019 	 0.0365952622 	 1.0000000534 
29.0000000000 	 0.0366177526 	 0.0429254147 	 0.0366177507 	 1.0000000533 
29.5000000000 	 0.0366459689 	 0.0428351236 	 0.0366459665 	 1.0000000533 
30.0000000000 	 0.0366758227 	 0.0427661950 	 0.0366758210 	 1.0000000532 
30.5000000000 	 0.0367030015 	 0.0427199381 	 0.0367030002 	 1.0000000532 
31.0000000000 	 0.0367238201 	 0.0426958044 	 0.0367238187 	 1.0000000531 
31.5000000000 	 0.0367358791 	 0.0426920152 	 0.0367358780 	 1.0000000529 
32.0000000000 	 0.0367383650 	 0.0427058758 	 0.0367383665 	 1.0000000529 
32.5000000000 	 0.0367319623 	 0.0427339101 	 0.0367319639 	 1.0000000528 
33.0000000000 	 0.0367184694 	 0.0427719834 	 0.0367184707 	 1.0000000528 
33.5000000000 	 0.0367002816 	 0.0428155202 	 0.0367002829 	 1.0000000528 
34.0000000000 	 0.0366798917 	 0.0428598646 	 0.0366798925 	 1.0000000527 
34.5000000000 	 0.0366595120 	 0.0429007238 	 0.0366595113 	 1.0000000526 
35.0000000000 	 0.0366408637 	 0.0429346175 	 0.0366408634 	 1.0000000525 
35.5000000000 	 0.0366251144 	 0.0429592003 	 0.0366251148 	 1.0000000525 
36.0000000000 	 0.0366129269 	 0.0429734187 	 0.0366129253 	 1.0000000524 
36.5000000000 	 0.0366045415 	 0.0429774635 	 0.0366045394 	 1.0000000524 
37.0000000000 	 0.0365998741 	 0.0429725807 	 0.0365998718 	 1.0000000523 
37.5000000000 	 0.0365986020 	 0.0429607207 	 0.0365985976 	 1.0000000522 
38.0000000000 	 0.0366002104 	 0.0429442095 	 0.0366002053 	 1.0000000521 
38.5000000000 	 0.0366040509 	 0.0429254190 	 0.0366040489 	 1.0000000520 
39.0000000000 	 0.0366093860 	 0.0429065166 	 0.0366093853 	 1.0000000521 
39.5000000000 	 0.0366154480 	 0.0428892810 	 0.0366154482 	 1.0000000520 
40.0000000000 	 0.0366215004 	 0.0428750275 	 0.0366215028 	 1.0000000525 
40.5000000000 	 0.0366269092 	 0.0428645613 	 0.0366269121 	 1.0000000524 
41.0000000000 	 0.0366311861 	 0.0428582267 	 0.0366311889 	 1.0000000524 
41.5000000000 	 0.0366340304 	 0.0428559402 	 0.0366340322 	 1.0000000522 
42.0000000000 	 0.0366353308 	 0.0428572842 	 0.0366353327 	 1.0000000521 
42.5000000000 	 0.0366351569 	 0.0428615834 	 0.0366351592 	 1.0000000518 
43.0000000000 	 0.0366337194 	 0.0428680005 	 0.0366337224 	 1.0000000516 
43.5000000000 	 0.0366313258 	 0.0428756325 	 0.0366313304 	 1.0000000516 
44.0000000000 	 0.0366283295 	 0.0428835915 	 0.0366283312 	 1.0000000515 
44.5000000000 	 0.0366250835 	 0.0428910941 	 0.0366250845 	 1.0000000515 
45.0000000000 	 0.0366219089 	 0.0428975151 	 0.0366219092 	 1.0000000515 
45.5000000000 	 0.0366190659 	 0.0429024200 	 0.0366190651 	 1.0000000513 
46.0000000000 	 0.0366167442 	 0.0429055867 	 0.0366167427 	 1.0000000514 
46.5000000000 	 0.0366150545 	 0.0429069915 	 0.0366150537 	 1.0000000511 
47.0000000000 	 0.0366140362 	 0.0429067798 	 0.0366140351 	 1.0000000514 
47.5000000000 	 0.0366136610 	 0.0429052286 	 0.0366136607 	 1.0000000514 
48.0000000000 	 0.0366138511 	 0.0429027000 	 0.0366138512 	 1.0000000514 
48.5000000000 	 0.0366144901 	 0.0428995856 	 0.0366144906 	 1.0000000515 
49.0000000000 	 0.0366154397 	 0.0428962706 	 0.0366154411 	 1.0000000514 
49.5000000000 	 0.0366165568 	 0.0428930978 	 0.0366165597 	 1.0000000513 
50.0000000000 	 0.0366177043 	 0.0428903362 	 0.0366177072 	 1.0000000513 
50.5000000000 	 0.0366187638 	 0.0428881858 	 0.0366187664 	 1.0000000511 
51.0000000000 	 0.0366196385 	 0.0428867430 	 0.0366196460 	 1.0000000509 
51.5000000000 	 0.0366202789 	 0.0428860314 	 0.0366202837 	 1.0000000510 
52.0000000000 	 0.0366206499 	 0.0428860071 	 0.0366206566 	 1.0000000509 
52.5000000000 	 0.0366207559 	 0.0428865563 	 0.0366207609 	 1.0000000508 
53.0000000000 	 0.0366206254 	 0.0428875502 	 0.0366206299 	 1.0000000499 
53.5000000000 	 0.0366203029 	 0.0428888216 	 0.0366203043 	 1.0000000497 
54.0000000000 	 0.0366198465 	 0.0428902128 	 0.0366198414 	 1.0000000496 
54.5000000000 	 0.0366193150 	 0.0428915749 	 0.0366193201 	 1.0000000495 
55.0000000000 	 0.0366187687 	 0.0428927904 	 0.0366187716 	 1.0000000497 
55.5000000000 	 0.0366182590 	 0.0428937623 	 0.0366182611 	 1.0000000497 
56.0000000000 	 0.0366178248 	 0.0428944418 	 0.0366178258 	 1.0000000496 
56.5000000000 	 0.0366174896 	 0.0428948129 	 0.0366174902 	 1.0000000495 
57.0000000000 	 0.0366172751 	 0.0428948905 	 0.0366172726 	 1.0000000495 
57.5000000000 	 0.0366171723 	 0.0428947117 	 0.0366171698 	 1.0000000494 
58.0000000000 	 0.0366171725 	 0.0428943346 	 0.0366171746 	 1.0000000494 
58.5000000000 	 0.0366172628 	 0.0428938265 	 0.0366172676 	 1.0000000492 
59.0000000000 	 0.0366174178 	 0.0428932549 	 0.0366174211 	 1.0000000491 
59.5000000000 	 0.0366176122 	 0.0428926800 	 0.0366176155 	 1.0000000490 
60.0000000000 	 0.0366178198 	 0.0428921597 	 0.0366178228 	 1.0000000488 
60.5000000000 	 0.0366180201 	 0.0428917334 	 0.0366180229 	 1.0000000488 
61.0000000000 	 0.0366181930 	 0.0428914264 	 0.0366181964 	 1.0000000487 
61.5000000000 	 0.0366183283 	 0.0428912463 	 0.0366183319 	 1.0000000486 
62.0000000000 	 0.0366184158 	 0.0428911913 	 0.0366184220 	 1.0000000485 
62.5000000000 	 0.0366184572 	 0.0428912451 	 0.0366184632 	 1.0000000484 
63.0000000000 	 0.0366184537 	 0.0428913877 	 0.0366184588 	 1.0000000482 
63.5000000000 	 0.0366184134 	 0.0428915935 	 0.0366184177 	 1.0000000481 
64.0000000000 	 0.0366183455 	 0.0428918327 	 0.0366183493 	 1.0000000481 
64.5000000000 	 0.0366182589 	 0.0428920760 	 0.0366182636 	 1.0000000479 
65.0000000000 	 0.0366181661 	 0.0428923011 	 0.0366181696 	 1.0000000479 
65.5000000000 	 0.0366180741 	 0.0428924911 	 0.0366180785 	 1.0000000478 
66.0000000000 	 0.0366179932 	 0.0428926318 	 0.0366179961 	 1.0000000477 
66.5000000000 	 0.0366179282 	 0.0428927207 	 0.0366179319 	 1.0000000475 
67.0000000000 	 0.0366178829 	 0.0428927558 	 0.0366178868 	 1.0000000475 
67.5000000000 	 0.0366178575 	 0.0428927430 	 0.0366178609 	 1.0000000472 
68.0000000000 	 0.0366178509 	 0.0428926903 	 0.0366178547 	 1.0000000470 
68.5000000000 	 0.0366178617 	 0.0428926097 	 0.0366178646 	 1.0000000470 
69.0000000000 	 0.0366178852 	 0.0428925130 	 0.0366178882 	 1.0000000469 
69.5000000000 	 0.0366179172 	 0.0428924111 	 0.0366179206 	 1.0000000468 
70.0000000000 	 0.0366179537 	 0.0428923153 	 0.0366179573 	 1.0000000465 
70.5000000000 	 0.0366179903 	 0.0428922326 	 0.0366179939 	 1.0000000463 
71.0000000000 	 0.0366180233 	 0.0428921695 	 0.0366180270 	 1.0000000462 
71.5000000000 	 0.0366180507 	 0.0428921275 	 0.0366180545 	 1.0000000460 
72.0000000000 	 0.0366180702 	 0.0428921084 	 0.0366180746 	 1.0000000459 
72.5000000000 	 0.0366180815 	 0.0428921100 	 0.0366180856 	 1.0000000458 
73.0000000000 	 0.0366180843 	 0.0428921290 	 0.0366180885 	 1.0000000457 
73.5000000000 	 0.0366180804 	 0.0428921607 	 0.0366180846 	 1.0000000455 
74.0000000000 	 0.0366180707 	 0.0428922012 	 0.0366180749 	 1.0000000455 
74.5000000000 	 0.0366180569 	 0.0428922413 	 0.0366180610 	 1.0000000454 
75.0000000000 	 0.0366180413 	 0.0428922838 	 0.0366180457 	 1.0000000453 
75.5000000000 	 0.0366180257 	 0.0428923190 	 0.0366180301 	 1.0000000453 
76.0000000000 	 0.0366180108 	 0.0428923482 	 0.0366180148 	 1.0000000452 
76.5000000000 	 0.0366179984 	 0.0428923684 	 0.0366180014 	 1.0000000451 
77.0000000000 	 0.0366179887 	 0.0428923740 	 0.0366179920 	 1.0000000451 
77.5000000000 	 0.0366179827 	 0.0428923770 	 0.0366179864 	 1.0000000449 
78.0000000000 	 0.0366179803 	 0.0428923714 	 0.0366179860 	 1.0000000449 
78.5000000000 	 0.0366179811 	 0.0428923597 	 0.0366179860 	 1.0000000448 
79.0000000000 	 0.0366179845 	 0.0428923215 	 0.0366179903 	 1.0000000448 
79.5000000000 	 0.0366179896 	 0.0428923059 	 0.0366179938 	 1.0000000447 
80.0000000000 	 0.0366179959 	 0.0428922913 	 0.0366180009 	 1.0000000447 
80.5000000000 	 0.0366180046 	 0.0428922762 	 0.0366180056 	 1.0000000446 
81.0000000000 	 0.0366180084 	 0.0428922670 	 0.0366180143 	 1.0000000446 
81.5000000000 	 0.0366180112 	 0.0428922591 	 0.0366180194 	 1.0000000445 
82.0000000000 	 0.0366180137 	 0.0428922586 	 0.0366180228 	 1.0000000445 
82.5000000000 	 0.0366180152 	 0.0428922488 	 0.0366180263 	 1.0000000444 
83.0000000000 	 0.0366180153 	 0.0428922561 	 0.0366180261 	 1.0000000444 
83.5000000000 	 0.0366180141 	 0.0428922719 	 0.0366180247 	 1.0000000443 
84.0000000000 	 0.0366180124 	 0.0428922826 	 0.0366180227 	 1.0000000443 
84.5000000000 	 0.0366180101 	 0.0428922852 	 0.0366180259 	 1.0000000442 
85.0000000000 	 0.0366180063 	 0.0428922906 	 0.0366180223 	 1.0000000441 
85.5000000000 	 0.0366180024 	 0.0428922961 	 0.0366180135 	 1.0000000441 
86.0000000000 	 0.0366179992 	 0.0428923009 	 0.0366180146 	 1.0000000441 
86.5000000000 	 0.0366179974 	 0.0428923368 	 0.0366180141 	 1.0000000440 
87.0000000000 	 0.0366179959 	 0.0428922572 	 0.0366180120 	 1.0000000440 
87.5000000000 	 0.0366179951 	 0.0428922619 	 0.0366180104 	 1.0000000440 
88.0000000000 	 0.0366179954 	 0.0428922656 	 0.0366180134 	 1.0000000439 
88.5000000000 	 0.0366179975 	 0.0428922680 	 0.0366180005 	 1.0000000439 
89.0000000000 	 0.0366180014 	 0.0428922687 	 0.0366180836 	 1.0000000438 
89.5000000000 	 0.0366180057 	 0.0428922695 	 0.0366180678 	 1.0000000438 
90.0000000000 	 0.0366180097 	 0.0428922698 	 0.0366180529 	 1.0000000438 
90.5000000000 	 0.0366180129 	 0.0428922683 	 0.0366180420 	 1.0000000438 
91.0000000000 	 0.0366180155 	 0.0428922702 	 0.0366180345 	 1.0000000438 
91.5000000000 	 0.0366180168 	 0.0428922762 	 0.0366180272 	 1.0000000437 
92.0000000000 	 0.0366180176 	 0.0428922800 	 0.0366180215 	 1.0000000437 
92.5000000000 	 0.0366180192 	 0.0428922824 	 0.0366180168 	 1.0000000437 
93.0000000000 	 0.0366180211 	 0.0428922838 	 0.0366180137 	 1.0000000437 
93.5000000000 	 0.0366180221 	 0.0428922845 	 0.0366180126 	 1.0000000437 
94.0000000000 	 0.0366180218 	 0.0428922850 	 0.0366180133 	 1.0000000437 
94.5000000000 	 0.0366180207 	 0.0428922853 	 0.0366180150 	 1.0000000437 
95.0000000000 	 0.0366180194 	 0.0428922850 	 0.0366180171 	 1.0000000437 
95.5000000000 	 0.0366180175 	 0.0428922842 	 0.0366180192 	 1.0000000437 
96.0000000000 	 0.0366180154 	 0.0428922826 	 0.0366180208 	 1.0000000437 
96.5000000000 	 0.0366180139 	 0.0428922813 	 0.0366180217 	 1.0000000437 
97.0000000000 	 0.0366180128 	 0.0428922799 	 0.0366180229 	 1.0000000437 
97.5000000000 	 0.0366180123 	 0.0428922788 	 0.0366180243 	 1.0000000437 
98.0000000000 	 0.0366180121 	 0.0428922782 	 0.0366180258 	 1.0000000437 
98.5000000000 	 0.0366180120 	 0.0428922772 	 0.0366180269 	 1.0000000437 
99.0000000000 	 0.0366180119 	 0.0428922769 	 0.0366180278 	 1.0000000436 
99.5000000000 	 0.0366180125 	 0.0428922770 	 0.0366180277 	 1.0000000436 
100.0000000000 	 0.0366180130 	 0.0428922772 	 0.0366180274 	 1.0000000436 
100.5000000000 	 0.0366180137 	 0.0428922776 	 0.0366180266 	 1.0000000436 
101.0000000000 	 0.0366180142 	 0.0428922781 	 0.0366180257 	 1.0000000436 
101.5000000000 	 0.0366180146 	 0.0428922787 	 0.0366180248 	 1.0000000436 
102.0000000000 	 0.0366180149 	 0.0428922793 	 0.0366180240 	 1.0000000436 
102.5000000000 	 0.0366180152 	 0.0428922798 	 0.0366180233 	 1.0000000436 
103.0000000000 	 0.0366180153 	 0.0428922802 	 0.0366180227 	 1.0000000436 
103.5000000000 	 0.0366180154 	 0.0428922805 	 0.0366180223 	 1.0000000436 
104.0000000000 	 0.0366180154 	 0.0428922806 	 0.0366180221 	 1.0000000436 
104.5000000000 	 0.0366180152 	 0.0428922807 	 0.0366180222 	 1.0000000436 
105.0000000000 	 0.0366180150 	 0.0428922806 	 0.0366180224 	 1.0000000436 
105.5000000000 	 0.0366180147 	 0.0428922804 	 0.0366180226 	 1.0000000436 
106.0000000000 	 0.0366180145 	 0.0428922802 	 0.0366180229 	 1.0000000436 
106.5000000000 	 0.0366180143 	 0.0428922800 	 0.0366180233 	 1.0000000436 
107.0000000000 	 0.0366180141 	 0.0428922797 	 0.0366180236 	 1.0000000436 
107.5000000000 	 0.0366180140 	 0.0428922795 	 0.0366180239 	 1.0000000436 
108.0000000000 	 0.0366180139 	 0.0428922793 	 0.0366180241 	 1.0000000436 
108.5000000000 	 0.0366180139 	 0.0428922792 	 0.0366180243 	 1.0000000436 
109.0000000000 	 0.0366180139 	 0.0428922791 	 0.0366180244 	 1.0000000436 
109.5000000000 	 0.0366180140 	 0.0428922791 	 0.0366180244 	 1.0000000436 
110.0000000000 	 0.0366180141 	 0.0428922791 	 0.0366180244 	 1.0000000436 
110.5000000000 	 0.0366180142 	 0.0428922792 	 0.0366180243 	 1.0000000436 
111.0000000000 	 0.0366180143 	 0.0428922793 	 0.0366180242 	 1.0000000436 
111.5000000000 	 0.0366180144 	 0.0428922794 	 0.0366180240 	 1.0000000436 
112.0000000000 	 0.0366180144 	 0.0428922795 	 0.0366180239 	 1.0000000436 
112.5000000000 	 0.0366180145 	 0.0428922796 	 0.0366180237 	 1.0000000436 
113.0000000000 	 0.0366180145 	 0.0428922796 	 0.0366180236 	 1.0000000436 
113.5000000000 	 0.0366180145 	 0.0428922797 	 0.0366180236 	 1.0000000436 
114.0000000000 	 0.0366180145 	 0.0428922797 	 0.0366180235 	 1.0000000437 
114.5000000000 	 0.0366180145 	 0.0428922798 	 0.0366180235 	 1.0000000437 
115.0000000000 	 0.0366180145 	 0.0428922798 	 0.0366180235 	 1.0000000437 
115.5000000000 	 0.0366180144 	 0.0428922797 	 0.0366180235 	 1.0000000437 
116.0000000000 	 0.0366180144 	 0.0428922797 	 0.0366180236 	 1.0000000437 
116.5000000000 	 0.0366180144 	 0.0428922797 	 0.0366180237 	 1.0000000437 
117.0000000000 	 0.0366180143 	 0.0428922796 	 0.0366180237 	 1.0000000437 
117.5000000000 	 0.0366180143 	 0.0428922796 	 0.0366180238 	 1.0000000437 
118.0000000000 	 0.0366180143 	 0.0428922795 	 0.0366180238 	 1.0000000437 
118.5000000000 	 0.0366180143 	 0.0428922795 	 0.0366180239 	 1.0000000437 
119.0000000000 	 0.0366180143 	 0.0428922795 	 0.0366180239 	 1.0000000437 
119.5000000000 	 0.0366180143 	 0.0428922795 	 0.0366180239 	 1.0000000437 
120.0000000000 	 0.0366180143 	 0.0428922795 	 0.0366180239 	 1.0000000437 
120.5000000000 	 0.0366180143 	 0.0428922795 	 0.0366180239 	 1.0000000437 
121.0000000000 	 0.0366180143 	 0.0428922795 	 0.0366180239 	 1.0000000437 
121.5000000000 	 0.0366180143 	 0.0428922795 	 0.0366180238 	 1.0000000437 
122.0000000000 	 0.0366180144 	 0.0428922796 	 0.0366180238 	 1.0000000437 
122.5000000000 	 0.0366180144 	 0.0428922796 	 0.0366180238 	 1.0000000437 
123.0000000000 	 0.0366180144 	 0.0428922796 	 0.0366180238 	 1.0000000437 
123.5000000000 	 0.0366180144 	 0.0428922796 	 0.0366180237 	 1.0000000437 
124.0000000000 	 0.0366180144 	 0.0428922796 	 0.0366180237 	 1.0000000437 
124.5000000000 	 0.0366180144 	 0.0428922796 	 0.0366180237 	 1.0000000437 
