##input
##{
##time_step=0.25;
##time_end = 400;
##Gamma_l =0.5;  //also Gamma_l is square root of the decay
##Gamma_m =0.50;
##Gamma_r =0.5;
##Nbin =2;
##svdcutoff = 1E-10;
##maxnumberofSV = 5000;
##left_fb = 16; //ATTENTION left-middle  .... avoid feedback 2, avoid feedback times uneven
##right_fb = 8; //ATTENTION middle-right ... left_fb >= right_fb, works for right_fb=1
##init_000 = 0.; 
##init_001 = 0.0*57735027; 
##init_010 = 0.0*57735027; 
##init_011 = 0.0*0.57735027; 
##init_100 = 0.0*57735027; 
##init_101 = 0.0*0.57735027; 
##init_110 = 0.0*0.57735027;//70710678118; 
##init_111 = 1.0;//70710678118; 
##phi = 1.5 ; // 4 --> 4pi --> all phases zero!!!
##INDIVIDUAL_PHASE_CHOICE = 0; // if this is zero, the phase is set with phi=phi_l=phi_r, and phi_l=phi*l_fb/(l_fb+r_fb)
##phi_l  = 0.00;  // as multiple of pi phi_l=phi_r, and 
##phi_ml = 0.0; // phi_m chooses phi_ml, and fixes phi_mr/0.5=1.-phi_ml/0.5
##phi_mr = 0.0; // phi_m chooses phi_ml, and fixes phi_mr/0.5=1.-phi_ml/0.5
##phi_r  = 0.00;  // ATTENTION !! has no influence is equal to phi_r
##}
##// =ATTENTION feedback counts between left and right, middle is half the feedback, effective first feedback effect after fb/2
##// =ATTENTION exclude feedback time of 2, i.e. no distance between left - middle - right bin
##// =ATTENTION exclude uneven feedback times of 2n+1, i.e. asymmetric swap necessary between left - middle - right bin
##// =ATTENTION exclude complex valued initial states, not yet implemented
##
##// 1./sqrt(2.) = 0.70710678118
##// 1./sqrt(3.) = 0.57735027
##// 2pi=6.283185307179586476925286766559  
##// 4pi=12,566370614359172953850573533118‬
0.0000000000 	 1.0000000000 	 1.0000000000 	 1.0000000000 	 1.0000000000 
0.2500000000 	 0.8801223115 	 0.8801223115 	 0.8801223115 	 1.0000000197 
0.5000000000 	 0.7746152807 	 0.7746152807 	 0.7746152807 	 1.0000000333 
0.7500000000 	 0.6817561877 	 0.6817561874 	 0.6817561876 	 1.0000000426 
1.0000000000 	 0.6000288274 	 0.6000288269 	 0.6000288273 	 1.0000000489 
1.2500000000 	 0.5280987538 	 0.5280987531 	 0.5280987537 	 1.0000000534 
1.5000000000 	 0.4647914912 	 0.4647914904 	 0.4647914911 	 1.0000000564 
1.7500000000 	 0.4090733570 	 0.4090733562 	 0.4090733569 	 1.0000000585 
2.0000000000 	 0.3600345842 	 0.3600345835 	 0.3600345841 	 1.0000000599 
2.2500000000 	 0.3168744666 	 0.3204671318 	 0.3204671324 	 1.0000000611 
2.5000000000 	 0.2788882715 	 0.2871233561 	 0.2871233564 	 1.0000000626 
2.7500000000 	 0.2454557791 	 0.2593161973 	 0.2593161977 	 1.0000000628 
3.0000000000 	 0.2160311008 	 0.2363005977 	 0.2363005981 	 1.0000000631 
3.2500000000 	 0.1901337874 	 0.2173369088 	 0.2173369092 	 1.0000000634 
3.5000000000 	 0.1673409855 	 0.2017298497 	 0.2017298501 	 1.0000000635 
3.7500000000 	 0.1472805324 	 0.1888503751 	 0.1888503757 	 1.0000000633 
4.0000000000 	 0.1296248808 	 0.1781458428 	 0.1781458438 	 1.0000000627 
4.2500000000 	 0.1176784381 	 0.1725374039 	 0.1689447404 	 1.0000000618 
4.5000000000 	 0.1114686676 	 0.1709085524 	 0.1606472339 	 1.0000000431 
4.7500000000 	 0.1093916641 	 0.1716638967 	 0.1529729003 	 1.0000000378 
5.0000000000 	 0.1101561138 	 0.1736467525 	 0.1457493714 	 1.0000000332 
5.2500000000 	 0.1127382218 	 0.1760467482 	 0.1388797465 	 1.0000000320 
5.5000000000 	 0.1163407997 	 0.1783188373 	 0.1323188465 	 1.0000000399 
5.7500000000 	 0.1203560542 	 0.1801167102 	 0.1260535857 	 1.0000000469 
6.0000000000 	 0.1243328587 	 0.1812390095 	 0.1200904457 	 1.0000000488 
6.2500000000 	 0.1292566111 	 0.1815701885 	 0.1168300050 	 1.0000000172 
6.5000000000 	 0.1373939542 	 0.1810421797 	 0.1173217717 	 1.0000000189 
6.7500000000 	 0.1467226622 	 0.1796433968 	 0.1197237068 	 1.0000000354 
7.0000000000 	 0.1558074431 	 0.1774169701 	 0.1227756740 	 1.0000000260 
7.2500000000 	 0.1636951770 	 0.1744388619 	 0.1256507444 	 0.9999999881 
7.5000000000 	 0.1698137421 	 0.1708025388 	 0.1278398068 	 0.9999999981 
7.7500000000 	 0.1738801828 	 0.1666086031 	 0.1290627377 	 1.0000000052 
8.0000000000 	 0.1758236233 	 0.1619571378 	 0.1292019820 	 1.0000000087 
8.2500000000 	 0.1760235485 	 0.1575451990 	 0.1282509463 	 1.0000000212 
8.5000000000 	 0.1748824113 	 0.1538367353 	 0.1262745692 	 0.9999999799 
8.7500000000 	 0.1725176054 	 0.1505529429 	 0.1233813901 	 0.9999999897 
9.0000000000 	 0.1691878078 	 0.1475434320 	 0.1197025533 	 1.0000000193 
9.2500000000 	 0.1652028347 	 0.1447350504 	 0.1153792930 	 0.9999999440 
9.5000000000 	 0.1608672913 	 0.1420979128 	 0.1105530180 	 0.9999999774 
9.7500000000 	 0.1564433387 	 0.1396211271 	 0.1053590173 	 0.9999999676 
10.0000000000 	 0.1521357074 	 0.1373000637 	 0.0999225719 	 1.0000000002 
10.2500000000 	 0.1480998998 	 0.1349415933 	 0.0940351976 	 1.0000000254 
10.5000000000 	 0.1444492635 	 0.1324531855 	 0.0875866602 	 1.0000000214 
10.7500000000 	 0.1412388567 	 0.1299822305 	 0.0808635778 	 1.0000000111 
11.0000000000 	 0.1384636317 	 0.1276450581 	 0.0741463913 	 1.0000000052 
11.2500000000 	 0.1360789860 	 0.1255192330 	 0.0676853680 	 1.0000000188 
11.5000000000 	 0.1340145929 	 0.1236442954 	 0.0616866457 	 1.0000000161 
11.7500000000 	 0.1321889483 	 0.1220270159 	 0.0563063924 	 1.0000000262 
12.0000000000 	 0.1305191357 	 0.1206490533 	 0.0516509065 	 1.0000000270 
12.2500000000 	 0.1287441815 	 0.1194910580 	 0.0479231382 	 1.0000000142 
12.5000000000 	 0.1266811581 	 0.1185486298 	 0.0452588618 	 1.0000000156 
12.7500000000 	 0.1244268454 	 0.1178090829 	 0.0435915310 	 1.0000000057 
13.0000000000 	 0.1220717544 	 0.1172368902 	 0.0428448385 	 1.0000000133 
13.2500000000 	 0.1196887465 	 0.1167862316 	 0.0429193771 	 1.0000000406 
13.5000000000 	 0.1173272746 	 0.1164106392 	 0.0436915112 	 1.0000000411 
13.7500000000 	 0.1150160552 	 0.1160701222 	 0.0450191109 	 1.0000000264 
14.0000000000 	 0.1127667045 	 0.1157344840 	 0.0467500604 	 1.0000000297 
14.2500000000 	 0.1105795778 	 0.1153978721 	 0.0487325859 	 1.0000000235 
14.5000000000 	 0.1084467653 	 0.1150902089 	 0.0508229692 	 1.0000000200 
14.7500000000 	 0.1063522008 	 0.1148576222 	 0.0528887385 	 1.0000000136 
15.0000000000 	 0.1042770919 	 0.1147420067 	 0.0548136466 	 1.0000000192 
15.2500000000 	 0.1022049284 	 0.1147763021 	 0.0565037742 	 1.0000000282 
