# dt 0.5000000000 -- t_end 10500 -- Nfb 8 -- fb_phase 0.5000000000
# E_cav 0.0000000000 -- Gamma 0.3500000000 -- G_cav 0.2000000000
# Ndim 2 -- Nbin 2 -- Ncav 3 -- cutoff 0.0000000001
# Init_EE 0.00 -- pn1 1.00 -- pn2 0.00 -- pn3 0.00 -- pn4 0.00
#SpecSteps 5000 --- SpecIntervall 3.00 
# Gamma^2*tau*dt=0.4900000000 
0.5000000000 	0.0000000000 	 0.0000000000 	0.0000000000 	 0.0000000000 	
1.0000000000 	0.0000000612 	 0.0000249170 	-0.0000000000 	 0.0000000004 	
1.5000000000 	0.0000009373 	 0.0000986913 	-0.0000000000 	 0.0000000178 	
2.0000000000 	0.0000045287 	 0.0002184994 	-0.0000000000 	 0.0000001262 	
2.5000000000 	0.0000136194 	 0.0003799064 	-0.0000000000 	 0.0000004573 	
3.0000000000 	0.0000315478 	 0.0005771479 	-0.0000000000 	 0.0000011828 	
3.5000000000 	0.0000618898 	 0.0008034407 	-0.0000000000 	 0.0000024965 	
4.0000000000 	0.0001081672 	 0.0010513038 	-0.0000000000 	 0.0000045970 	
4.5000000000 	0.0001735916 	 0.0013128797 	-0.0000000000 	 0.0000076728 	
5.0000000000 	0.0002608494 	 0.0015802415 	-0.0000199423 	 0.0000118893 	
5.5000000000 	0.0003719356 	 0.0018456753 	-0.0001366856 	 0.0000173949 	
6.0000000000 	0.0005080429 	 0.0021019309 	-0.0003582301 	 0.0000243522 	
6.5000000000 	0.0006695089 	 0.0023424339 	-0.0006704494 	 0.0000329229 	
7.0000000000 	0.0008558139 	 0.0025614550 	-0.0010596253 	 0.0000432398 	
7.5000000000 	0.0010656211 	 0.0027542376 	-0.0015125452 	 0.0000553846 	
8.0000000000 	0.0012968483 	 0.0029170804 	-0.0020166751 	 0.0000693746 	
8.5000000000 	0.0015467631 	 0.0030473812 	-0.0025602311 	 0.0000851555 	
9.0000000000 	0.0018120812 	 0.0031436422 	-0.0031322676 	 0.0001026122 	
9.5000000000 	0.0020890216 	 0.0032054461 	-0.0037227394 	 0.0001216219 	
10.0000000000 	0.0023733551 	 0.0032334100 	-0.0043225468 	 0.0001420705 	
10.5000000000 	0.0026605048 	 0.0032291147 	-0.0049235682 	 0.0001638118 	
11.0000000000 	0.0029456707 	 0.0031950107 	-0.0055186610 	 0.0001866580 	
11.5000000000 	0.0032239627 	 0.0031343016 	-0.0061016639 	 0.0002103840 	
12.0000000000 	0.0034905381 	 0.0030508105 	-0.0066673783 	 0.0002347325 	
12.5000000000 	0.0037407371 	 0.0029488346 	-0.0072115369 	 0.0002594224 	
13.0000000000 	0.0039702138 	 0.0028329923 	-0.0077307467 	 0.0002841557 	
13.5000000000 	0.0041750546 	 0.0027080682 	-0.0082223457 	 0.0003086249 	
14.0000000000 	0.0043518827 	 0.0025788622 	-0.0086842113 	 0.0003325179 	
14.5000000000 	0.0044979428 	 0.0024500454 	-0.0091146678 	 0.0003555247 	
15.0000000000 	0.0046111660 	 0.0023260281 	-0.0095124906 	 0.0003773451 	
15.5000000000 	0.0046902121 	 0.0022108433 	-0.0098769216 	 0.0003976967 	
16.0000000000 	0.0047344897 	 0.0021080479 	-0.0102076742 	 0.0004163233 	
16.5000000000 	0.0047441544 	 0.0020206437 	-0.0105049297 	 0.0004330013 	
17.0000000000 	0.0047200867 	 0.0019510199 	-0.0107693240 	 0.0004475456 	
17.5000000000 	0.0046638501 	 0.0019009165 	-0.0110019288 	 0.0004598143 	
18.0000000000 	0.0045776336 	 0.0018714093 	-0.0112042125 	 0.0004697109 	
18.5000000000 	0.0044641809 	 0.0018629154 	-0.0113780116 	 0.0004771862 	
19.0000000000 	0.0043267075 	 0.0018752162 	-0.0115254857 	 0.0004822375 	
19.5000000000 	0.0041688112 	 0.0019074989 	-0.0116490692 	 0.0004849072 	
20.0000000000 	0.0039943758 	 0.0019584109 	-0.0117514217 	 0.0004852803 	
20.5000000000 	0.0038074737 	 0.0020261269 	-0.0118353731 	 0.0004834810 	
21.0000000000 	0.0036122673 	 0.0021084247 	-0.0119038709 	 0.0004796677 	
21.5000000000 	0.0034129138 	 0.0022027675 	-0.0119599087 	 0.0004740282 	
22.0000000000 	0.0032134746 	 0.0023063887 	-0.0120064814 	 0.0004667751 	
22.5000000000 	0.0030178317 	 0.0024163790 	-0.0120465349 	 0.0004581390 	
23.0000000000 	0.0028296123 	 0.0025297699 	-0.0120829108 	 0.0004483628 	
23.5000000000 	0.0026521241 	 0.0026436147 	-0.0121183049 	 0.0004376964 	
24.0000000000 	0.0024883012 	 0.0027550619 	-0.0121552183 	 0.0004263904 	
24.5000000000 	0.0023406618 	 0.0028614218 	-0.0121959280 	 0.0004146912 	
25.0000000000 	0.0022112779 	 0.0029602240 	-0.0122424453 	 0.0004028358 	
25.5000000000 	0.0021017566 	 0.0030492641 	-0.0122965018 	 0.0003910476 	
26.0000000000 	0.0020132334 	 0.0031266413 	-0.0123595156 	 0.0003795327 	
26.5000000000 	0.0019463760 	 0.0031907838 	-0.0124325794 	 0.0003684762 	
27.0000000000 	0.0019013985 	 0.0032404651 	-0.0125164497 	 0.0003580404 	
27.5000000000 	0.0018780839 	 0.0032748088 	-0.0126115407 	 0.0003483626 	
28.0000000000 	0.0018758149 	 0.0032932855 	-0.0127179264 	 0.0003395542 	
28.5000000000 	0.0018936107 	 0.0032957003 	-0.0128353462 	 0.0003317003 	
29.0000000000 	0.0019301680 	 0.0032821738 	-0.0129632158 	 0.0003248598 	
29.5000000000 	0.0019839069 	 0.0032531163 	-0.0131006453 	 0.0003190664 	
30.0000000000 	0.0020530177 	 0.0032091978 	-0.0132464577 	 0.0003143298 	
30.5000000000 	0.0021355097 	 0.0031513148 	-0.0133992127 	 0.0003106371 	
31.0000000000 	0.0022292585 	 0.0030805542 	-0.0135572378 	 0.0003079554 	
31.5000000000 	0.0023320530 	 0.0029981570 	-0.0137186626 	 0.0003062340 	
32.0000000000 	0.0024416393 	 0.0029054823 	-0.0138814503 	 0.0003054067 	
32.5000000000 	0.0025557621 	 0.0028039718 	-0.0140434346 	 0.0003053947 	
33.0000000000 	0.0026722024 	 0.0026951172 	-0.0142023622 	 0.0003061090 	
33.5000000000 	0.0027888113 	 0.0025804301 	-0.0143559328 	 0.0003074532 	
34.0000000000 	0.0029035394 	 0.0024614151 	-0.0145018393 	 0.0003093256 	
34.5000000000 	0.0030144620 	 0.0023395466 	-0.0146378074 	 0.0003116220 	
35.0000000000 	0.0031198000 	 0.0022162489 	-0.0147616349 	 0.0003142377 	
35.5000000000 	0.0032179364 	 0.0020928812 	-0.0148712301 	 0.0003170695 	
36.0000000000 	0.0033074289 	 0.0019707246 	-0.0149646479 	 0.0003200174 	
36.5000000000 	0.0033870185 	 0.0018509745 	-0.0150401237 	 0.0003229861 	
37.0000000000 	0.0034556355 	 0.0017347343 	-0.0150961038 	 0.0003258862 	
37.5000000000 	0.0035124022 	 0.0016230125 	-0.0151312725 	 0.0003286349 	
38.0000000000 	0.0035566326 	 0.0015167222 	-0.0151445755 	 0.0003311570 	
38.5000000000 	0.0035878307 	 0.0014166822 	-0.0151352395 	 0.0003333856 	
39.0000000000 	0.0036056866 	 0.0013236187 	-0.0151027865 	 0.0003352620 	
39.5000000000 	0.0036100711 	 0.0012381685 	-0.0150470442 	 0.0003367362 	
40.0000000000 	0.0036010288 	 0.0011608821 	-0.0149681517 	 0.0003377670 	
40.5000000000 	0.0035787712 	 0.0010922271 	-0.0148665599 	 0.0003383214 	
41.0000000000 	0.0035436682 	 0.0010325910 	-0.0147430281 	 0.0003383750 	
41.5000000000 	0.0034962395 	 0.0009822836 	-0.0145986146 	 0.0003379114 	
42.0000000000 	0.0034371448 	 0.0009415381 	-0.0144346644 	 0.0003369221 	
42.5000000000 	0.0033671746 	 0.0009105126 	-0.0142527911 	 0.0003354061 	
43.0000000000 	0.0032872395 	 0.0008892895 	-0.0140548560 	 0.0003333694 	
43.5000000000 	0.0031983599 	 0.0008778749 	-0.0138429426 	 0.0003308250 	
44.0000000000 	0.0031016538 	 0.0008761975 	-0.0136193294 	 0.0003277921 	
44.5000000000 	0.0029983263 	 0.0008841069 	-0.0133864567 	 0.0003242961 	
45.0000000000 	0.0028896559 	 0.0009013716 	-0.0131468940 	 0.0003203680 	
45.5000000000 	0.0027769819 	 0.0009276772 	-0.0129033032 	 0.0003160443 	
46.0000000000 	0.0026616910 	 0.0009626258 	-0.0126584042 	 0.0003113666 	
46.5000000000 	0.0025452017 	 0.0010057347 	-0.0124149410 	 0.0003063810 	
47.0000000000 	0.0024289492 	 0.0010564369 	-0.0121756336 	 0.0003011380 	
47.5000000000 	0.0023143703 	 0.0011140830 	-0.0119431629 	 0.0002956912 	
48.0000000000 	0.0022028864 	 0.0011779436 	-0.0117201002 	 0.0002900981 	
48.5000000000 	0.0020958867 	 0.0012472140 	-0.0115089079 	 0.0002844189 	
49.0000000000 	0.0019947114 	 0.0013210200 	-0.0113118803 	 0.0002787155 	
49.5000000000 	0.0019006346 	 0.0013984259 	-0.0111311245 	 0.0002730519 	
50.0000000000 	0.0018148473 	 0.0014784433 	-0.0109685320 	 0.0002674929 	
50.5000000000 	0.0017384408 	 0.0015600426 	-0.0108257500 	 0.0002621036 	
51.0000000000 	0.0016723919 	 0.0016421651 	-0.0107041639 	 0.0002569480 	
51.5000000000 	0.0016175480 	 0.0017237366 	-0.0106048822 	 0.0002520888 	
52.0000000000 	0.0015746140 	 0.0018036822 	-0.0105287195 	 0.0002475868 	
52.5000000000 	0.0015441408 	 0.0018809417 	-0.0104761873 	 0.0002434992 	
53.0000000000 	0.0015265160 	 0.0019544852 	-0.0104474900 	 0.0002398794 	
53.5000000000 	0.0015219559 	 0.0020233293 	-0.0104425238 	 0.0002367762 	
54.0000000000 	0.0015305007 	 0.0020865527 	-0.0104608807 	 0.0002342325 	
54.5000000000 	0.0015520122 	 0.0021433113 	-0.0105018575 	 0.0002322852 	
55.0000000000 	0.0015861731 	 0.0021928522 	-0.0105644668 	 0.0002309638 	
55.5000000000 	0.0016324909 	 0.0022345269 	-0.0106474533 	 0.0002302903 	
56.0000000000 	0.0016903024 	 0.0022678024 	-0.0107493133 	 0.0002302785 	
56.5000000000 	0.0017587828 	 0.0022922705 	-0.0108683171 	 0.0002309338 	
57.0000000000 	0.0018369565 	 0.0023076556 	-0.0110025352 	 0.0002322526 	
57.5000000000 	0.0019237102 	 0.0023138195 	-0.0111498660 	 0.0002342225 	
58.0000000000 	0.0020178092 	 0.0023107645 	-0.0113080666 	 0.0002368221 	
58.5000000000 	0.0021179149 	 0.0022986333 	-0.0114747847 	 0.0002400213 	
59.0000000000 	0.0022226046 	 0.0022777073 	-0.0116475919 	 0.0002437815 	
59.5000000000 	0.0023303923 	 0.0022484015 	-0.0118240176 	 0.0002480562 	
60.0000000000 	0.0024397512 	 0.0022112580 	-0.0120015836 	 0.0002527912 	
60.5000000000 	0.0025491368 	 0.0021669366 	-0.0121778379 	 0.0002579261 	
61.0000000000 	0.0026570094 	 0.0021162036 	-0.0123503878 	 0.0002633942 	
61.5000000000 	0.0027618581 	 0.0020599189 	-0.0125169326 	 0.0002691242 	
62.0000000000 	0.0028622232 	 0.0019990213 	-0.0126752935 	 0.0002750409 	
62.5000000000 	0.0029567180 	 0.0019345128 	-0.0128234424 	 0.0002810664 	
63.0000000000 	0.0030440496 	 0.0018674418 	-0.0129595278 	 0.0002871211 	
63.5000000000 	0.0031230379 	 0.0017988857 	-0.0130818981 	 0.0002931252 	
64.0000000000 	0.0031926331 	 0.0017299331 	-0.0131891219 	 0.0002989997 	
64.5000000000 	0.0032519303 	 0.0016616664 	-0.0132800049 	 0.0003046676 	
65.0000000000 	0.0033001827 	 0.0015951442 	-0.0133536032 	 0.0003100551 	
65.5000000000 	0.0033368114 	 0.0015313848 	-0.0134092329 	 0.0003150927 	
66.0000000000 	0.0033614127 	 0.0014713501 	-0.0134464765 	 0.0003197164 	
66.5000000000 	0.0033737628 	 0.0014159315 	-0.0134651845 	 0.0003238682 	
67.0000000000 	0.0033738197 	 0.0013659365 	-0.0134654742 	 0.0003274976 	
67.5000000000 	0.0033617217 	 0.0013220771 	-0.0134477239 	 0.0003305616 	
68.0000000000 	0.0033377834 	 0.0012849603 	-0.0134125643 	 0.0003330258 	
68.5000000000 	0.0033024897 	 0.0012550797 	-0.0133608657 	 0.0003348649 	
69.0000000000 	0.0032564859 	 0.0012328102 	-0.0132937224 	 0.0003360624 	
69.5000000000 	0.0032005666 	 0.0012184038 	-0.0132124344 	 0.0003366114 	
70.0000000000 	0.0031356620 	 0.0012119877 	-0.0131184855 	 0.0003365145 	
70.5000000000 	0.0030628224 	 0.0012135648 	-0.0130135197 	 0.0003357832 	
71.0000000000 	0.0029832009 	 0.0012230155 	-0.0128993161 	 0.0003344383 	
71.5000000000 	0.0028980351 	 0.0012401016 	-0.0127777608 	 0.0003325089 	
72.0000000000 	0.0028086277 	 0.0012644726 	-0.0126508190 	 0.0003300322 	
72.5000000000 	0.0027163261 	 0.0012956724 	-0.0125205056 	 0.0003270527 	
73.0000000000 	0.0026225026 	 0.0013331484 	-0.0123888555 	 0.0003236216 	
73.5000000000 	0.0025285331 	 0.0013762617 	-0.0122578942 	 0.0003197957 	
74.0000000000 	0.0024357773 	 0.0014242977 	-0.0121296087 	 0.0003156368 	
74.5000000000 	0.0023455590 	 0.0014764788 	-0.0120059194 	 0.0003112103 	
75.0000000000 	0.0022591472 	 0.0015319765 	-0.0118886534 	 0.0003065846 	
75.5000000000 	0.0021777383 	 0.0015899250 	-0.0117795190 	 0.0003018299 	
76.0000000000 	0.0021024401 	 0.0016494341 	-0.0116800828 	 0.0002970171 	
76.5000000000 	0.0020342566 	 0.0017096033 	-0.0115917486 	 0.0002922167 	
77.0000000000 	0.0019740752 	 0.0017695347 	-0.0115157394 	 0.0002874980 	
77.5000000000 	0.0019226554 	 0.0018283461 	-0.0114530816 	 0.0002829279 	
78.0000000000 	0.0018806201 	 0.0018851835 	-0.0114045926 	 0.0002785700 	
78.5000000000 	0.0018484480 	 0.0019392331 	-0.0113708716 	 0.0002744840 	
79.0000000000 	0.0018264693 	 0.0019897323 	-0.0113522932 	 0.0002707246 	
79.5000000000 	0.0018148628 	 0.0020359796 	-0.0113490049 	 0.0002673407 	
80.0000000000 	0.0018136559 	 0.0020773437 	-0.0113609275 	 0.0002643753 	
80.5000000000 	0.0018227256 	 0.0021132718 	-0.0113877584 	 0.0002618645 	
81.0000000000 	0.0018418034 	 0.0021432957 	-0.0114289792 	 0.0002598372 	
81.5000000000 	0.0018704802 	 0.0021670375 	-0.0114838653 	 0.0002583150 	
82.0000000000 	0.0019082147 	 0.0021842136 	-0.0115514986 	 0.0002573119 	
82.5000000000 	0.0019543428 	 0.0021946371 	-0.0116307828 	 0.0002568340 	
83.0000000000 	0.0020080884 	 0.0021982195 	-0.0117204617 	 0.0002568800 	
83.5000000000 	0.0020685763 	 0.0021949702 	-0.0118191389 	 0.0002574408 	
84.0000000000 	0.0021348458 	 0.0021849953 	-0.0119252991 	 0.0002585003 	
84.5000000000 	0.0022058655 	 0.0021684948 	-0.0120373321 	 0.0002600354 	
85.0000000000 	0.0022805486 	 0.0021457587 	-0.0121535565 	 0.0002620163 	
85.5000000000 	0.0023577693 	 0.0021171618 	-0.0122722450 	 0.0002644074 	
86.0000000000 	0.0024363792 	 0.0020831573 	-0.0123916499 	 0.0002671678 	
86.5000000000 	0.0025152234 	 0.0020442698 	-0.0125100286 	 0.0002702516 	
87.0000000000 	0.0025931577 	 0.0020010871 	-0.0126256688 	 0.0002736091 	
87.5000000000 	0.0026690640 	 0.0019542513 	-0.0127369128 	 0.0002771874 	
88.0000000000 	0.0027418658 	 0.0019044494 	-0.0128421812 	 0.0002809308 	
88.5000000000 	0.0028105436 	 0.0018524030 	-0.0129399946 	 0.0002847824 	
89.0000000000 	0.0028741477 	 0.0017988580 	-0.0130289944 	 0.0002886841 	
89.5000000000 	0.0029318118 	 0.0017445743 	-0.0131079611 	 0.0002925782 	
90.0000000000 	0.0029827635 	 0.0016903145 	-0.0131758301 	 0.0002964074 	
90.5000000000 	0.0030263346 	 0.0016368338 	-0.0132317065 	 0.0003001164 	
91.0000000000 	0.0030619695 	 0.0015848691 	-0.0132748754 	 0.0003036521 	
91.5000000000 	0.0030892314 	 0.0015351292 	-0.0133048111 	 0.0003069645 	
92.0000000000 	0.0031078078 	 0.0014882850 	-0.0133211828 	 0.0003100076 	
92.5000000000 	0.0031175130 	 0.0014449605 	-0.0133238571 	 0.0003127395 	
93.0000000000 	0.0031182899 	 0.0014057247 	-0.0133128985 	 0.0003151235 	
93.5000000000 	0.0031102093 	 0.0013710837 	-0.0132885665 	 0.0003171281 	
94.0000000000 	0.0030934674 	 0.0013414746 	-0.0132513099 	 0.0003187276 	
94.5000000000 	0.0030683821 	 0.0013172596 	-0.0132017586 	 0.0003199025 	
95.0000000000 	0.0030353870 	 0.0012987218 	-0.0131407128 	 0.0003206396 	
95.5000000000 	0.0029950243 	 0.0012860620 	-0.0130691301 	 0.0003209319 	
96.0000000000 	0.0029479359 	 0.0012793960 	-0.0129881102 	 0.0003207792 	
96.5000000000 	0.0028948533 	 0.0012787545 	-0.0128988775 	 0.0003201873 	
97.0000000000 	0.0028365864 	 0.0012840828 	-0.0128027628 	 0.0003191686 	
97.5000000000 	0.0027740112 	 0.0012952426 	-0.0127011830 	 0.0003177412 	
98.0000000000 	0.0027080567 	 0.0013120143 	-0.0125956201 	 0.0003159292 	
98.5000000000 	0.0026396912 	 0.0013341014 	-0.0124875992 	 0.0003137617 	
99.0000000000 	0.0025699081 	 0.0013611347 	-0.0123786664 	 0.0003112728 	
99.5000000000 	0.0024997115 	 0.0013926785 	-0.0122703665 	 0.0003085008 	
100.0000000000 	0.0024301019 	 0.0014282375 	-0.0121642209 	 0.0003054878 	
100.5000000000 	0.0023620617 	 0.0014672640 	-0.0120617060 	 0.0003022788 	
101.0000000000 	0.0022965419 	 0.0015091664 	-0.0119642328 	 0.0002989215 	
101.5000000000 	0.0022344479 	 0.0015533176 	-0.0118731269 	 0.0002954650 	
102.0000000000 	0.0021766282 	 0.0015990650 	-0.0117896111 	 0.0002919595 	
102.5000000000 	0.0021238617 	 0.0016457393 	-0.0117147881 	 0.0002884555 	
103.0000000000 	0.0020768481 	 0.0016926645 	-0.0116496268 	 0.0002850029 	
103.5000000000 	0.0020361979 	 0.0017391676 	-0.0115949491 	 0.0002816506 	
104.0000000000 	0.0020024251 	 0.0017845882 	-0.0115514201 	 0.0002784455 	
104.5000000000 	0.0019759405 	 0.0018282878 	-0.0115195397 	 0.0002754320 	
105.0000000000 	0.0019570469 	 0.0018696587 	-0.0114996376 	 0.0002726514 	
105.5000000000 	0.0019459356 	 0.0019081326 	-0.0114918699 	 0.0002701412 	
106.0000000000 	0.0019426850 	 0.0019431879 	-0.0114962190 	 0.0002679348 	
106.5000000000 	0.0019472603 	 0.0019743574 	-0.0115124950 	 0.0002660610 	
107.0000000000 	0.0019595152 	 0.0020012339 	-0.0115403408 	 0.0002645434 	
107.5000000000 	0.0019791953 	 0.0020234759 	-0.0115792384 	 0.0002634005 	
108.0000000000 	0.0020059422 	 0.0020408115 	-0.0116285182 	 0.0002626451 	
108.5000000000 	0.0020393002 	 0.0020530420 	-0.0116873697 	 0.0002622844 	
109.0000000000 	0.0020787235 	 0.0020600436 	-0.0117548552 	 0.0002623199 	
109.5000000000 	0.0021235850 	 0.0020617688 	-0.0118299235 	 0.0002627475 	
110.0000000000 	0.0021731861 	 0.0020582463 	-0.0119114268 	 0.0002635574 	
110.5000000000 	0.0022267671 	 0.0020495796 	-0.0119981379 	 0.0002647345 	
111.0000000000 	0.0022835194 	 0.0020359450 	-0.0120887681 	 0.0002662585 	
111.5000000000 	0.0023425966 	 0.0020175882 	-0.0121819869 	 0.0002681045 	
112.0000000000 	0.0024031279 	 0.0019948199 	-0.0122764406 	 0.0002702431 	
112.5000000000 	0.0024642304 	 0.0019680113 	-0.0123707727 	 0.0002726411 	
113.0000000000 	0.0025250219 	 0.0019375872 	-0.0124636423 	 0.0002752617 	
113.5000000000 	0.0025846335 	 0.0019040203 	-0.0125537441 	 0.0002780655 	
114.0000000000 	0.0026422220 	 0.0018678232 	-0.0126398258 	 0.0002810107 	
114.5000000000 	0.0026969820 	 0.0018295408 	-0.0127207059 	 0.0002840540 	
115.0000000000 	0.0027481565 	 0.0017897425 	-0.0127952894 	 0.0002871511 	
115.5000000000 	0.0027950477 	 0.0017490133 	-0.0128625831 	 0.0002902573 	
116.0000000000 	0.0028370261 	 0.0017079453 	-0.0129217082 	 0.0002933283 	
116.5000000000 	0.0028735392 	 0.0016671294 	-0.0129719118 	 0.0002963207 	
117.0000000000 	0.0029041182 	 0.0016271465 	-0.0130125764 	 0.0002991926 	
117.5000000000 	0.0029283842 	 0.0015885594 	-0.0130432272 	 0.0003019042 	
118.0000000000 	0.0029460526 	 0.0015519051 	-0.0130635375 	 0.0003044187 	
118.5000000000 	0.0029569361 	 0.0015176870 	-0.0130733315 	 0.0003067020 	
119.0000000000 	0.0029609463 	 0.0014863681 	-0.0130725858 	 0.0003087242 	
119.5000000000 	0.0029580945 	 0.0014583652 	-0.0130614273 	 0.0003104589 	
120.0000000000 	0.0029484897 	 0.0014340428 	-0.0130401308 	 0.0003118844 	
120.5000000000 	0.0029323366 	 0.0014137089 	-0.0130091126 	 0.0003129837 	
121.0000000000 	0.0029099316 	 0.0013976110 	-0.0129689237 	 0.0003137443 	
121.5000000000 	0.0028816571 	 0.0013859333 	-0.0129202401 	 0.0003141589 	
122.0000000000 	0.0028479760 	 0.0013787944 	-0.0128638522 	 0.0003142253 	
122.5000000000 	0.0028094235 	 0.0013762468 	-0.0128006520 	 0.0003139461 	
123.0000000000 	0.0027665988 	 0.0013782767 	-0.0127316193 	 0.0003133289 	
123.5000000000 	0.0027201562 	 0.0013848044 	-0.0126578070 	 0.0003123861 	
124.0000000000 	0.0026707948 	 0.0013956872 	-0.0125803251 	 0.0003111344 	
124.5000000000 	0.0026192482 	 0.0014107210 	-0.0125003242 	 0.0003095950 	
125.0000000000 	0.0025662736 	 0.0014296447 	-0.0124189789 	 0.0003077930 	
125.5000000000 	0.0025126406 	 0.0014521440 	-0.0123374702 	 0.0003057567 	
126.0000000000 	0.0024591204 	 0.0014778570 	-0.0122569692 	 0.0003035176 	
126.5000000000 	0.0024064742 	 0.0015063794 	-0.0121786201 	 0.0003011100 	
127.0000000000 	0.0023554429 	 0.0015372709 	-0.0121035241 	 0.0002985698 	
127.5000000000 	0.0023067367 	 0.0015700622 	-0.0120327241 	 0.0002959348 	
128.0000000000 	0.0022610248 	 0.0016042615 	-0.0119671906 	 0.0002932435 	
128.5000000000 	0.0022189267 	 0.0016393621 	-0.0119078085 	 0.0002905349 	
129.0000000000 	0.0021810037 	 0.0016748498 	-0.0118553650 	 0.0002878480 	
129.5000000000 	0.0021477518 	 0.0017102104 	-0.0118105400 	 0.0002852206 	
130.0000000000 	0.0021195945 	 0.0017449365 	-0.0117738969 	 0.0002826898 	
130.5000000000 	0.0020968784 	 0.0017785357 	-0.0117458760 	 0.0002802905 	
