##input
##{
##time_step=0.5;
##time_end = 900;
##Gamma_l =0.50;
##Gamma_m =0.50;
##Gamma_r =0.50;
##Nbin =2;
##svdcutoff = 1E-7;
##maxnumberofSV = 5000;
##feedback_time = 10; //ATTENTION avoid feedback 2, avoid feedback times uneven
##init_000 = 0.; 
##init_001 = 0.0; 
##init_010 = 0.0; 
##init_011 = 0.; 
##init_100 = 0.0; 
##init_101 = 0.; 
##init_110 = 0.; 
##init_111 = 1.; 
##phi_l = 0.050;  // as multiple of pi
##phi_m = -0.05;  // as multiple of pi
##phi_r = 1.95;  // as multiple of pi
##}
##// =ATTENTION feedback counts between left and right, middle is half the feedback, effective first feedback effect after fb/2
##// =ATTENTION exclude feedback time of 2, i.e. no distance between left - middle - right bin
##// =ATTENTION exclude uneven feedback times of 2n+1, i.e. asymmetric swap necessary between left - middle - right bin
##// =ATTENTION exclude complex valued initial states, not yet implemented
##
##// 1./sqrt(2.) = 0.70710678118
##// 1./sqrt(3.) = 0.57735027
0.0000000000 	 1.0000000000 	 1.0000000000 	 1.0000000000 	 1.0000000000 
0.5000000000 	 0.7701518782 	 0.7701518782 	 0.7701518782 	 1.0000010559 
1.0000000000 	 0.5931336906 	 0.5931336906 	 0.5931336906 	 1.0000015463 
1.5000000000 	 0.4568027699 	 0.4568027496 	 0.4568027639 	 1.0000017752 
2.0000000000 	 0.3518072636 	 0.3518072354 	 0.3518072551 	 1.0000018826 
2.5000000000 	 0.2709448088 	 0.2709447809 	 0.2709447992 	 1.0000019333 
3.0000000000 	 0.2218761081 	 0.2350837275 	 0.2218760818 	 1.0000019433 
3.5000000000 	 0.1910444814 	 0.2205641435 	 0.1910445193 	 1.0000017998 
4.0000000000 	 0.1721938473 	 0.2169001413 	 0.1721932216 	 1.0000016330 
4.5000000000 	 0.1603414044 	 0.2164997187 	 0.1603367959 	 1.0000005146 
5.0000000000 	 0.1519723607 	 0.2149411231 	 0.1519725711 	 1.0000002112 
5.5000000000 	 0.1517632516 	 0.2121910892 	 0.1517600587 	 0.9999993350 
6.0000000000 	 0.1600230835 	 0.2084420943 	 0.1600202236 	 0.9999976043 
6.5000000000 	 0.1665725689 	 0.2027284947 	 0.1665515520 	 0.9999959273 
7.0000000000 	 0.1678059504 	 0.1959867915 	 0.1677958984 	 0.9999944672 
7.5000000000 	 0.1637640403 	 0.1896100172 	 0.1637716470 	 0.9999925751 
8.0000000000 	 0.1551419937 	 0.1809370738 	 0.1551430179 	 0.9999910285 
8.5000000000 	 0.1433838459 	 0.1696471675 	 0.1433814799 	 0.9999886148 
9.0000000000 	 0.1309356409 	 0.1601985888 	 0.1309368593 	 0.9999872685 
9.5000000000 	 0.1194444288 	 0.1547745039 	 0.1194443263 	 0.9999845664 
10.0000000000 	 0.1096557049 	 0.1535901633 	 0.1096578138 	 0.9999813714 
10.5000000000 	 0.1028817548 	 0.1554555069 	 0.1028847336 	 0.9999797437 
11.0000000000 	 0.0998152976 	 0.1583650622 	 0.0998134088 	 0.9999779769 
11.5000000000 	 0.0991675461 	 0.1605779584 	 0.0991654428 	 0.9999756995 
12.0000000000 	 0.0996217574 	 0.1612238380 	 0.0996190171 	 0.9999732972 
12.5000000000 	 0.1000627269 	 0.1601503716 	 0.1000579891 	 0.9999707783 
13.0000000000 	 0.0998297753 	 0.1575911480 	 0.0998222759 	 0.9999677700 
13.5000000000 	 0.0987566412 	 0.1538976049 	 0.0987511767 	 0.9999646122 
14.0000000000 	 0.0969613490 	 0.1495623116 	 0.0969560060 	 0.9999625088 
14.5000000000 	 0.0946764721 	 0.1451778230 	 0.0946689527 	 0.9999599298 
15.0000000000 	 0.0921644318 	 0.1412328925 	 0.0921561231 	 0.9999564383 
15.5000000000 	 0.0897305432 	 0.1380019826 	 0.0897209887 	 0.9999568433 
16.0000000000 	 0.0877329866 	 0.1355341892 	 0.0877197396 	 0.9999546591 
16.5000000000 	 0.0864094749 	 0.1337053668 	 0.0863986191 	 0.9999502402 
17.0000000000 	 0.0857787373 	 0.1323054720 	 0.0857718526 	 0.9999463915 
17.5000000000 	 0.0856939445 	 0.1311040865 	 0.0856875189 	 0.9999423870 
18.0000000000 	 0.0859097774 	 0.1299454818 	 0.0859030462 	 0.9999389712 
18.5000000000 	 0.0861763709 	 0.1287529163 	 0.0861698713 	 0.9999365134 
19.0000000000 	 0.0863040670 	 0.1275477473 	 0.0862987343 	 0.9999333962 
19.5000000000 	 0.0861925552 	 0.1264104854 	 0.0861896289 	 0.9999312749 
20.0000000000 	 0.0858221074 	 0.1254541688 	 0.0858175625 	 0.9999292656 
20.5000000000 	 0.0852263314 	 0.1247871534 	 0.0852208420 	 0.9999262585 
21.0000000000 	 0.0844825187 	 0.1244578757 	 0.0844791803 	 0.9999242218 
21.5000000000 	 0.0836866668 	 0.1244576084 	 0.0836836869 	 0.9999224034 
22.0000000000 	 0.0829221680 	 0.1246983685 	 0.0829155536 	 0.9999199763 
22.5000000000 	 0.0822466371 	 0.1250618725 	 0.0822432532 	 0.9999180585 
23.0000000000 	 0.0816823741 	 0.1254301589 	 0.0816782905 	 0.9999158055 
23.5000000000 	 0.0812306623 	 0.1256942216 	 0.0812177065 	 0.9999139001 
24.0000000000 	 0.0808619163 	 0.1257932144 	 0.0808516865 	 0.9999120360 
24.5000000000 	 0.0805561702 	 0.1256918487 	 0.0805508993 	 0.9999101253 
25.0000000000 	 0.0803034912 	 0.1254122060 	 0.0802949972 	 0.9999076541 
25.5000000000 	 0.0800822839 	 0.1249853283 	 0.0800717871 	 0.9999058456 
26.0000000000 	 0.0798947154 	 0.1244463856 	 0.0798833495 	 0.9999077598 
26.5000000000 	 0.0797419728 	 0.1238589593 	 0.0797298179 	 0.9999065264 
27.0000000000 	 0.0796254369 	 0.1232619883 	 0.0796132096 	 0.9999054757 
27.5000000000 	 0.0795553217 	 0.1226763657 	 0.0795363664 	 0.9999036635 
28.0000000000 	 0.0795195175 	 0.1221322100 	 0.0795068043 	 0.9999026673 
28.5000000000 	 0.0795270436 	 0.1216224471 	 0.0795110403 	 0.9999009961 
29.0000000000 	 0.0795527667 	 0.1211677538 	 0.0795407892 	 0.9998998844 
29.5000000000 	 0.0795899596 	 0.1207555192 	 0.0795775971 	 0.9998965004 
30.0000000000 	 0.0796327961 	 0.1203828272 	 0.0796133596 	 0.9998950235 
30.5000000000 	 0.0796633682 	 0.1200593934 	 0.0796426034 	 0.9998949484 
31.0000000000 	 0.0796681508 	 0.1197884267 	 0.0796492582 	 0.9998946509 
31.5000000000 	 0.0796434398 	 0.1195756144 	 0.0796349337 	 0.9998922176 
32.0000000000 	 0.0796051037 	 0.1193995127 	 0.0795958834 	 0.9998912772 
32.5000000000 	 0.0795429979 	 0.1192729281 	 0.0795417208 	 0.9998896679 
33.0000000000 	 0.0794810321 	 0.1191863698 	 0.0794762489 	 0.9998882888 
33.5000000000 	 0.0794115328 	 0.1191312821 	 0.0793909024 	 0.9998863563 
34.0000000000 	 0.0793338287 	 0.1190696707 	 0.0793198083 	 0.9998846250 
34.5000000000 	 0.0792679277 	 0.1190330800 	 0.0792581482 	 0.9998833302 
35.0000000000 	 0.0792021879 	 0.1189570910 	 0.0791806476 	 0.9998825687 
35.5000000000 	 0.0791484884 	 0.1188483906 	 0.0791341172 	 0.9998810220 
36.0000000000 	 0.0791041070 	 0.1187382572 	 0.0790878189 	 0.9998794528 
36.5000000000 	 0.0790708899 	 0.1185798664 	 0.0790537539 	 0.9998776448 
37.0000000000 	 0.0790393839 	 0.1183939218 	 0.0790340190 	 0.9998761435 
37.5000000000 	 0.0790420055 	 0.1181851240 	 0.0790174900 	 0.9998747458 
38.0000000000 	 0.0790450212 	 0.1179615355 	 0.0790173161 	 0.9998730237 
38.5000000000 	 0.0790568197 	 0.1177202239 	 0.0790187081 	 0.9998715644 
39.0000000000 	 0.0790911292 	 0.1174635006 	 0.0790403745 	 0.9998705547 
39.5000000000 	 0.0791184028 	 0.1172243943 	 0.0790727022 	 0.9998695074 
40.0000000000 	 0.0791550860 	 0.1169684039 	 0.0791101011 	 0.9998683905 
40.5000000000 	 0.0791902633 	 0.1167585393 	 0.0791450572 	 0.9998672588 
41.0000000000 	 0.0792359664 	 0.1165258158 	 0.0791777113 	 0.9998656913 
41.5000000000 	 0.0792712067 	 0.1162981358 	 0.0792211254 	 0.9998646570 
42.0000000000 	 0.0792991101 	 0.1160655718 	 0.0792511707 	 0.9998635501 
42.5000000000 	 0.0793256702 	 0.1158677675 	 0.0792839175 	 0.9998622766 
43.0000000000 	 0.0793410676 	 0.1156822058 	 0.0792889394 	 0.9998609471 
43.5000000000 	 0.0793598802 	 0.1154881800 	 0.0793180939 	 0.9998604867 
44.0000000000 	 0.0793747113 	 0.1153384506 	 0.0793539345 	 0.9998596552 
44.5000000000 	 0.0793890418 	 0.1152074001 	 0.0793789683 	 0.9998588692 
45.0000000000 	 0.0793952903 	 0.1150696708 	 0.0793888862 	 0.9998582308 
45.5000000000 	 0.0794064147 	 0.1149062143 	 0.0793944901 	 0.9998569568 
46.0000000000 	 0.0794112440 	 0.1147574065 	 0.0794265916 	 0.9998564484 
46.5000000000 	 0.0794242596 	 0.1145962162 	 0.0794274009 	 0.9998549884 
47.0000000000 	 0.0794261488 	 0.1144387347 	 0.0794270280 	 0.9998538092 
47.5000000000 	 0.0794340594 	 0.1142800046 	 0.0794312728 	 0.9998520376 
48.0000000000 	 0.0794565333 	 0.1140990806 	 0.0794443277 	 0.9998506060 
48.5000000000 	 0.0794700257 	 0.1139124596 	 0.0794649901 	 0.9998492910 
49.0000000000 	 0.0794993682 	 0.1137129564 	 0.0794939808 	 0.9998478323 
49.5000000000 	 0.0795156897 	 0.1135155241 	 0.0795192467 	 0.9998471597 
50.0000000000 	 0.0795488297 	 0.1133044710 	 0.0795458691 	 0.9998457168 
50.5000000000 	 0.0795834090 	 0.1130953606 	 0.0795769435 	 0.9998443970 
51.0000000000 	 0.0796207585 	 0.1128973317 	 0.0796116531 	 0.9998434025 
51.5000000000 	 0.0796546018 	 0.1126897631 	 0.0796518867 	 0.9998425897 
52.0000000000 	 0.0796899834 	 0.1124901946 	 0.0796856218 	 0.9998418544 
52.5000000000 	 0.0797226975 	 0.1122864410 	 0.0797242052 	 0.9998416311 
53.0000000000 	 0.0797615644 	 0.1120918540 	 0.0797526826 	 0.9998415698 
53.5000000000 	 0.0797885345 	 0.1119053022 	 0.0797826231 	 0.9998403102 
54.0000000000 	 0.0798185385 	 0.1117161384 	 0.0798120104 	 0.9998401119 
54.5000000000 	 0.0798464127 	 0.1115359959 	 0.0798356271 	 0.9998388301 
55.0000000000 	 0.0798762394 	 0.1113603637 	 0.0798632988 	 0.9998381190 
55.5000000000 	 0.0799028061 	 0.1111799363 	 0.0798888544 	 0.9998372043 
56.0000000000 	 0.0799267445 	 0.1110038781 	 0.0799145067 	 0.9998358763 
56.5000000000 	 0.0799511988 	 0.1108265909 	 0.0799380344 	 0.9998354686 
57.0000000000 	 0.0799750494 	 0.1106486676 	 0.0799579266 	 0.9998351158 
57.5000000000 	 0.0800007970 	 0.1104703630 	 0.0799810431 	 0.9998345507 
58.0000000000 	 0.0800261471 	 0.1102969365 	 0.0800089048 	 0.9998343287 
58.5000000000 	 0.0800523066 	 0.1101211959 	 0.0800360738 	 0.9998332804 
59.0000000000 	 0.0800822564 	 0.1099466195 	 0.0800616695 	 0.9998326877 
59.5000000000 	 0.0801066077 	 0.1097639447 	 0.0800937201 	 0.9998321988 
60.0000000000 	 0.0801308223 	 0.1095825448 	 0.0801225255 	 0.9998301793 
60.5000000000 	 0.0801565826 	 0.1093887237 	 0.0801506905 	 0.9998295876 
61.0000000000 	 0.0801845681 	 0.1092090125 	 0.0801783581 	 0.9998287532 
61.5000000000 	 0.0802105213 	 0.1090276437 	 0.0802015813 	 0.9998277532 
62.0000000000 	 0.0802414842 	 0.1088410211 	 0.0802308880 	 0.9998269909 
62.5000000000 	 0.0802684984 	 0.1086581503 	 0.0802600027 	 0.9998265316 
63.0000000000 	 0.0803040970 	 0.1084723806 	 0.0802929739 	 0.9998256052 
63.5000000000 	 0.0803332535 	 0.1082881432 	 0.0803228459 	 0.9998254095 
64.0000000000 	 0.0803627760 	 0.1081052768 	 0.0803500398 	 0.9998247749 
64.5000000000 	 0.0803916191 	 0.1079276120 	 0.0803840005 	 0.9998241395 
65.0000000000 	 0.0804192306 	 0.1077489206 	 0.0804080693 	 0.9998235442 
65.5000000000 	 0.0804508311 	 0.1075733417 	 0.0804366298 	 0.9998221730 
66.0000000000 	 0.0804731455 	 0.1073956310 	 0.0804639360 	 0.9998220781 
66.5000000000 	 0.0805008806 	 0.1072221027 	 0.0804863498 	 0.9998214654 
67.0000000000 	 0.0805238449 	 0.1070481745 	 0.0805137488 	 0.9998205962 
67.5000000000 	 0.0805459511 	 0.1068800359 	 0.0805387853 	 0.9998201956 
68.0000000000 	 0.0805709244 	 0.1067047379 	 0.0805657129 	 0.9998194216 
68.5000000000 	 0.0805978382 	 0.1065375939 	 0.0805961148 	 0.9998188656 
69.0000000000 	 0.0806249691 	 0.1063747628 	 0.0806244997 	 0.9998185071 
69.5000000000 	 0.0806509539 	 0.1062057933 	 0.0806458445 	 0.9998180359 
70.0000000000 	 0.0806755649 	 0.1060353416 	 0.0806650838 	 0.9998174754 
70.5000000000 	 0.0807023171 	 0.1058624441 	 0.0806892052 	 0.9998167300 
71.0000000000 	 0.0807300822 	 0.1056968424 	 0.0807117569 	 0.9998162087 
71.5000000000 	 0.0807526031 	 0.1055326667 	 0.0807356708 	 0.9998150611 
72.0000000000 	 0.0807796382 	 0.1053668145 	 0.0807586412 	 0.9998141408 
72.5000000000 	 0.0808075351 	 0.1052041295 	 0.0807858837 	 0.9998138136 
73.0000000000 	 0.0808314820 	 0.1050408743 	 0.0808135117 	 0.9998134526 
73.5000000000 	 0.0808539284 	 0.1048672879 	 0.0808406950 	 0.9998126068 
74.0000000000 	 0.0808772627 	 0.1047022326 	 0.0808659624 	 0.9998124841 
74.5000000000 	 0.0808998097 	 0.1045413499 	 0.0808919014 	 0.9998123872 
75.0000000000 	 0.0809246499 	 0.1043835813 	 0.0809137962 	 0.9998123114 
75.5000000000 	 0.0809472571 	 0.1042263038 	 0.0809395021 	 0.9998122355 
76.0000000000 	 0.0809687519 	 0.1040710873 	 0.0809689975 	 0.9998121427 
76.5000000000 	 0.0809918850 	 0.1039174346 	 0.0809933169 	 0.9998120590 
77.0000000000 	 0.0810167570 	 0.1037651779 	 0.0810147511 	 0.9998120015 
77.5000000000 	 0.0810395544 	 0.1036130189 	 0.0810355223 	 0.9998119689 
78.0000000000 	 0.0810623049 	 0.1034618112 	 0.0810561101 	 0.9998119002 
78.5000000000 	 0.0810845522 	 0.1033136167 	 0.0810770270 	 0.9998118185 
79.0000000000 	 0.0811070654 	 0.1031681008 	 0.0810980298 	 0.9998117488 
79.5000000000 	 0.0811291477 	 0.1030214304 	 0.0811188099 	 0.9998116877 
80.0000000000 	 0.0811506763 	 0.1028759381 	 0.0811396591 	 0.9998115458 
80.5000000000 	 0.0811718265 	 0.1027298820 	 0.0811600079 	 0.9998112342 
81.0000000000 	 0.0811922461 	 0.1025863681 	 0.0811795524 	 0.9998112286 
81.5000000000 	 0.0812120479 	 0.1024438659 	 0.0811993863 	 0.9998112223 
82.0000000000 	 0.0812321666 	 0.1023039868 	 0.0812190288 	 0.9998112172 
82.5000000000 	 0.0812521403 	 0.1021655699 	 0.0812394360 	 0.9998112105 
83.0000000000 	 0.0812721141 	 0.1020286734 	 0.0812595453 	 0.9998112052 
83.5000000000 	 0.0812912929 	 0.1018932371 	 0.0812792502 	 0.9998112031 
84.0000000000 	 0.0813102053 	 0.1017591368 	 0.0812986965 	 0.9998112014 
84.5000000000 	 0.0813285180 	 0.1016264857 	 0.0813177085 	 0.9998111999 
85.0000000000 	 0.0813465128 	 0.1014955283 	 0.0813363646 	 0.9998111988 
85.5000000000 	 0.0813641605 	 0.1013664283 	 0.0813546265 	 0.9998111978 
86.0000000000 	 0.0813814305 	 0.1012391673 	 0.0813725078 	 0.9998111970 
86.5000000000 	 0.0813983471 	 0.1011136676 	 0.0813900731 	 0.9998111962 
87.0000000000 	 0.0814149376 	 0.1009898747 	 0.0814072594 	 0.9998111955 
87.5000000000 	 0.0814312045 	 0.1008677339 	 0.0814239680 	 0.9998111950 
88.0000000000 	 0.0814471762 	 0.1007472712 	 0.0814401335 	 0.9998111945 
88.5000000000 	 0.0814628717 	 0.1006285116 	 0.0814557631 	 0.9998111941 
89.0000000000 	 0.0814782899 	 0.1005114904 	 0.0814709242 	 0.9998111937 
89.5000000000 	 0.0814934265 	 0.1003962412 	 0.0814856695 	 0.9998111933 
90.0000000000 	 0.0815082629 	 0.1002827747 	 0.0815000511 	 0.9998111931 
90.5000000000 	 0.0815227632 	 0.1001710832 	 0.0815140754 	 0.9998111928 
91.0000000000 	 0.0815368947 	 0.1000611617 	 0.0815277448 	 0.9998111926 
91.5000000000 	 0.0815506260 	 0.0999530217 	 0.0815410588 	 0.9998111924 
92.0000000000 	 0.0815639319 	 0.0998466892 	 0.0815540196 	 0.9998111923 
92.5000000000 	 0.0815767993 	 0.0997421984 	 0.0815666340 	 0.9998111921 
93.0000000000 	 0.0815892247 	 0.0996395832 	 0.0815789086 	 0.9998111920 
93.5000000000 	 0.0816012089 	 0.0995388712 	 0.0815908420 	 0.9998111919 
94.0000000000 	 0.0816127524 	 0.0994400842 	 0.0816024236 	 0.9998111918 
94.5000000000 	 0.0816238557 	 0.0993432390 	 0.0816136371 	 0.9998111917 
95.0000000000 	 0.0816345203 	 0.0992483501 	 0.0816244648 	 0.9998111917 
95.5000000000 	 0.0816447492 	 0.0991554328 	 0.0816348895 	 0.9998111916 
96.0000000000 	 0.0816545468 	 0.0990645029 	 0.0816448965 	 0.9998111915 
96.5000000000 	 0.0816639175 	 0.0989755756 	 0.0816544738 	 0.9998111915 
97.0000000000 	 0.0816728648 	 0.0988886635 	 0.0816636121 	 0.9998111914 
97.5000000000 	 0.0816813911 	 0.0988037759 	 0.0816723044 	 0.9998111914 
98.0000000000 	 0.0816894975 	 0.0987209197 	 0.0816805448 	 0.9998111913 
98.5000000000 	 0.0816971842 	 0.0986401005 	 0.0816883285 	 0.9998111913 
99.0000000000 	 0.0817044507 	 0.0985613237 	 0.0816956518 	 0.9998111912 
99.5000000000 	 0.0817112957 	 0.0984845954 	 0.0817025136 	 0.9998111912 
100.0000000000 	 0.0817177173 	 0.0984099225 	 0.0817089146 	 0.9998111912 
100.5000000000 	 0.0817237126 	 0.0983373128 	 0.0817148574 	 0.9998111911 
101.0000000000 	 0.0817292777 	 0.0982667746 	 0.0817203455 	 0.9998111911 
101.5000000000 	 0.0817344078 	 0.0981983164 	 0.0817253823 	 0.9998111911 
102.0000000000 	 0.0817390974 	 0.0981319470 	 0.0817299708 	 0.9998111911 
102.5000000000 	 0.0817433406 	 0.0980676760 	 0.0817341134 	 0.9998111910 
103.0000000000 	 0.0817471315 	 0.0980055130 	 0.0817378115 	 0.9998111910 
103.5000000000 	 0.0817504645 	 0.0979454685 	 0.0817410657 	 0.9998111910 
104.0000000000 	 0.0817533347 	 0.0978875529 	 0.0817438755 	 0.9998111910 
104.5000000000 	 0.0817557382 	 0.0978317762 	 0.0817462397 	 0.9998111910 
105.0000000000 	 0.0817576718 	 0.0977781481 	 0.0817481558 	 0.9998111910 
105.5000000000 	 0.0817591335 	 0.0977266776 	 0.0817496207 	 0.9998111909 
106.0000000000 	 0.0817601219 	 0.0976773726 	 0.0817506304 	 0.9998111909 
106.5000000000 	 0.0817606365 	 0.0976302402 	 0.0817511807 	 0.9998111909 
107.0000000000 	 0.0817606773 	 0.0975852865 	 0.0817512673 	 0.9998111909 
107.5000000000 	 0.0817602449 	 0.0975425168 	 0.0817508861 	 0.9998111909 
108.0000000000 	 0.0817593398 	 0.0975019353 	 0.0817500332 	 0.9998111909 
108.5000000000 	 0.0817579630 	 0.0974635456 	 0.0817487056 	 0.9998111909 
109.0000000000 	 0.0817561150 	 0.0974273505 	 0.0817469007 	 0.9998111909 
109.5000000000 	 0.0817537963 	 0.0973933523 	 0.0817446166 	 0.9998111909 
110.0000000000 	 0.0817510071 	 0.0973615526 	 0.0817418521 	 0.9998111909 
110.5000000000 	 0.0817477473 	 0.0973319529 	 0.0817386066 	 0.9998111909 
111.0000000000 	 0.0817440165 	 0.0973045543 	 0.0817348799 	 0.9998111909 
111.5000000000 	 0.0817398140 	 0.0972793580 	 0.0817306723 	 0.9998111909 
112.0000000000 	 0.0817351388 	 0.0972563649 	 0.0817259846 	 0.9998111909 
112.5000000000 	 0.0817299900 	 0.0972355761 	 0.0817208175 	 0.9998111909 
113.0000000000 	 0.0817243663 	 0.0972169924 	 0.0817151719 	 0.9998111909 
113.5000000000 	 0.0817182665 	 0.0972006145 	 0.0817090487 	 0.9998111909 
114.0000000000 	 0.0817116893 	 0.0971864433 	 0.0817024486 	 0.9998111909 
114.5000000000 	 0.0817046336 	 0.0971744793 	 0.0816953721 	 0.9998111909 
115.0000000000 	 0.0816970985 	 0.0971647227 	 0.0816878196 	 0.9998111909 
115.5000000000 	 0.0816890831 	 0.0971571736 	 0.0816797914 	 0.9998111909 
116.0000000000 	 0.0816805871 	 0.0971518314 	 0.0816712873 	 0.9998111909 
116.5000000000 	 0.0816716101 	 0.0971486955 	 0.0816623073 	 0.9998111909 
117.0000000000 	 0.0816621522 	 0.0971477644 	 0.0816528511 	 0.9998111909 
117.5000000000 	 0.0816522137 	 0.0971490364 	 0.0816429183 	 0.9998111909 
118.0000000000 	 0.0816417950 	 0.0971525090 	 0.0816325087 	 0.9998111909 
118.5000000000 	 0.0816308970 	 0.0971581793 	 0.0816216220 	 0.9998111909 
119.0000000000 	 0.0816195205 	 0.0971660437 	 0.0816102581 	 0.9998111909 
119.5000000000 	 0.0816076665 	 0.0971760984 	 0.0815984170 	 0.9998111909 
120.0000000000 	 0.0815953362 	 0.0971883387 	 0.0815860989 	 0.9998111909 
120.5000000000 	 0.0815825308 	 0.0972027598 	 0.0815733042 	 0.9998111909 
121.0000000000 	 0.0815692515 	 0.0972193562 	 0.0815600338 	 0.9998111909 
121.5000000000 	 0.0815554995 	 0.0972381223 	 0.0815462883 	 0.9998111909 
122.0000000000 	 0.0815412761 	 0.0972590519 	 0.0815320689 	 0.9998111909 
122.5000000000 	 0.0815265825 	 0.0972821387 	 0.0815173769 	 0.9998111909 
123.0000000000 	 0.0815114198 	 0.0973073759 	 0.0815022137 	 0.9998111909 
123.5000000000 	 0.0814957892 	 0.0973347567 	 0.0814865809 	 0.9998111909 
124.0000000000 	 0.0814796919 	 0.0973642737 	 0.0814704800 	 0.9998111909 
124.5000000000 	 0.0814631291 	 0.0973959196 	 0.0814539129 	 0.9998111909 
125.0000000000 	 0.0814461022 	 0.0974296866 	 0.0814368812 	 0.9998111909 
125.5000000000 	 0.0814286123 	 0.0974655666 	 0.0814193868 	 0.9998111909 
126.0000000000 	 0.0814106609 	 0.0975035513 	 0.0814014313 	 0.9998111909 
