##input
##{
##time_step=0.5;
##time_end = 800;
##Gamma_l =0.50;  //also Gamma_l is square root of the decay
##Gamma_m =0.50;
##Gamma_r =0.50;
##Nbin =2;
##svdcutoff = 1E-7;
##maxnumberofSV = 5000;
##feedback_time = 60; //ATTENTION avoid feedback 2, avoid feedback times uneven
##init_000 = 0.; 
##init_001 = 0.0; 
##init_010 = 0.0; 
##init_011 = 0.70710678118; 
##init_100 = 0.0; 
##init_101 = 0.; 
##init_110 = 0.70710678118;//70710678118; 
##init_111 = 0.0;//70710678118; 
##phi_l = -0.5;  // as multiple of pi
##phi_m = 0.0;  // as multiple of pi
##phi_r = 0.5;  // as multiple of pi
##}
##// =ATTENTION feedback counts between left and right, middle is half the feedback, effective first feedback effect after fb/2
##// =ATTENTION exclude feedback time of 2, i.e. no distance between left - middle - right bin
##// =ATTENTION exclude uneven feedback times of 2n+1, i.e. asymmetric swap necessary between left - middle - right bin
##// =ATTENTION exclude complex valued initial states, not yet implemented
##
##// 1./sqrt(2.) = 0.70710678118
##// 1./sqrt(3.) = 0.57735027
0.0000000000 	0.0000000000 	0.0000000000 	0.0000000000 	0.0000000000 	0.5000000000 	0.0000000000 	0.5000000000 	0.0000000000 	
0.5000000000 	0.0528304930 	0.0885091825 	0.1770183650 	0.0885091825 	0.2965663984 	0.0000000000 	0.2965663984 	0.0000000000 	
1.0000000000 	0.1655409253 	0.1206631479 	0.2413262959 	0.1206631479 	0.1759032573 	0.0000000000 	0.1759032573 	0.0000000000 	
1.5000000000 	0.2950641786 	0.1240669695 	0.2481339390 	0.1240669695 	0.1043339910 	0.0000000000 	0.1043339910 	0.0000000000 	
2.0000000000 	0.4201548106 	0.1140193521 	0.2280387042 	0.1140193521 	0.0618839119 	0.0000000000 	0.0618839119 	0.0000000000 	
2.5000000000 	0.5315223922 	0.0987667244 	0.1975334488 	0.0987667244 	0.0367053777 	0.0000000000 	0.0367053777 	0.0000000000 	
3.0000000000 	0.6262063895 	0.0825628326 	0.1651256652 	0.0825628326 	0.0217711633 	0.0000000000 	0.0217711633 	0.0000000000 	
3.5000000000 	0.7044146396 	0.0674397565 	0.1348795129 	0.0674397565 	0.0129131910 	0.0000000000 	0.0129131910 	0.0000000000 	
4.0000000000 	0.7677828612 	0.0542246781 	0.1084493563 	0.0542246781 	0.0076592371 	0.0000000000 	0.0076592371 	0.0000000000 	
4.5000000000 	0.8184460628 	0.0431170240 	0.0862340480 	0.0431170240 	0.0045429447 	0.0000000000 	0.0045429447 	0.0000000000 	
5.0000000000 	0.8585676678 	0.0340108104 	0.0680216208 	0.0340108104 	0.0026945695 	0.0000000000 	0.0026945695 	0.0000000000 	
5.5000000000 	0.8901217609 	0.0266704531 	0.0533409063 	0.0266704531 	0.0015982375 	0.0000000000 	0.0015982375 	0.0000000000 	
6.0000000000 	0.9148113239 	0.0208231976 	0.0416463953 	0.0208231976 	0.0009479671 	0.0000000000 	0.0009479671 	0.0000000000 	
6.5000000000 	0.9340562389 	0.0162048172 	0.0324096345 	0.0162048172 	0.0005622704 	0.0000000000 	0.0005622704 	0.0000000000 	
7.0000000000 	0.9490142832 	0.0125796909 	0.0251593817 	0.0125796909 	0.0003335010 	0.0000000000 	0.0003335010 	0.0000000000 	
7.5000000000 	0.9606152310 	0.0097472992 	0.0194945985 	0.0097472992 	0.0001978104 	0.0000000000 	0.0001978104 	0.0000000000 	
8.0000000000 	0.9695977538 	0.0075419098 	0.0150838196 	0.0075419098 	0.0001173278 	0.0000000000 	0.0001173278 	0.0000000000 	
8.5000000000 	0.9765441479 	0.0058291797 	0.0116583594 	0.0058291797 	0.0000695910 	0.0000000000 	0.0000695910 	0.0000000000 	
9.0000000000 	0.9819108219 	0.0045016684 	0.0090033367 	0.0045016684 	0.0000412767 	0.0000000000 	0.0000412767 	0.0000000000 	
9.5000000000 	0.9860539964 	0.0034742718 	0.0069485436 	0.0034742718 	0.0000244826 	0.0000000000 	0.0000244826 	0.0000000000 	
10.0000000000 	0.9892508127 	0.0026800483 	0.0053600966 	0.0026800483 	0.0000145214 	0.0000000000 	0.0000145214 	0.0000000000 	
10.5000000000 	0.9917163711 	0.0020666128 	0.0041332257 	0.0020666128 	0.0000086131 	0.0000000000 	0.0000086131 	0.0000000000 	
11.0000000000 	0.9936173155 	0.0015931289 	0.0031862579 	0.0015931289 	0.0000051087 	0.0000000000 	0.0000051087 	0.0000000000 	
11.5000000000 	0.9950825707 	0.0012278544 	0.0024557089 	0.0012278544 	0.0000030302 	0.0000000000 	0.0000030302 	0.0000000000 	
12.0000000000 	0.9962117746 	0.0009461699 	0.0018923398 	0.0009461699 	0.0000017973 	0.0000000000 	0.0000017973 	0.0000000000 	
12.5000000000 	0.9970818687 	0.0007290120 	0.0014580240 	0.0007290120 	0.0000010660 	0.0000000000 	0.0000010660 	0.0000000000 	
13.0000000000 	0.9977522316 	0.0005616381 	0.0011232763 	0.0005616381 	0.0000006323 	0.0000000000 	0.0000006323 	0.0000000000 	
13.5000000000 	0.9982686659 	0.0004326582 	0.0008653164 	0.0004326582 	0.0000003750 	0.0000000000 	0.0000003750 	0.0000000000 	
14.0000000000 	0.9986664895 	0.0003332786 	0.0006665572 	0.0003332786 	0.0000002224 	0.0000000000 	0.0000002224 	0.0000000000 	
14.5000000000 	0.9989729278 	0.0002567143 	0.0005134285 	0.0002567143 	0.0000001319 	0.0000000000 	0.0000001319 	0.0000000000 	
15.0000000000 	0.9992089637 	0.0001977321 	0.0003954643 	0.0001977321 	0.0000000783 	0.0000000000 	0.0000000783 	0.0000000000 	
15.5000000000 	0.9472684867 	0.0130110386 	0.0260116269 	0.0130110386 	0.0003489291 	0.0000000000 	0.0003489291 	0.0000000000 	
16.0000000000 	0.8434580767 	0.0374867653 	0.0749443046 	0.0374867300 	0.0033109438 	0.0000000000 	0.0033109412 	0.0000000000 	
16.5000000000 	0.7376055681 	0.0606380140 	0.1212320382 	0.0606376436 	0.0099421123 	0.0000000000 	0.0099419560 	0.0000000000 	
17.0000000000 	0.6510069956 	0.0779419166 	0.1558290983 	0.0779419193 	0.0186379117 	0.0000000000 	0.0186376778 	0.0000000000 	
17.5000000000 	0.5892720761 	0.0892011876 	0.1783428831 	0.0892014986 	0.0269891901 	0.0000000000 	0.0269888416 	0.0000000000 	
18.0000000000 	0.5510842977 	0.0956451683 	0.1912297922 	0.0956455092 	0.0331946400 	0.0000000000 	0.0331943371 	0.0000000000 	
18.5000000000 	0.5328144616 	0.0985714527 	0.1970832800 	0.0985714632 	0.0364760700 	0.0000000001 	0.0364758018 	0.0000000000 	
19.0000000000 	0.5305080300 	0.0989309610 	0.1978051395 	0.0989308984 	0.0369086108 	0.0000000001 	0.0369078981 	0.0000000000 	
19.5000000000 	0.5405674647 	0.0973357221 	0.1946195715 	0.0973358126 	0.0350661040 	0.0000000001 	0.0350654536 	0.0000000000 	
20.0000000000 	0.5598963779 	0.0941847154 	0.1883222384 	0.0941850773 	0.0317004802 	0.0000000001 	0.0316996974 	0.0000000000 	
20.5000000000 	0.5858519929 	0.0897801428 	0.1795188339 	0.0897802336 	0.0275286969 	0.0000000001 	0.0275278690 	0.0000000000 	
21.0000000000 	0.6162033073 	0.0843923622 	0.1687490089 	0.0843923254 	0.0231254030 	0.0000000001 	0.0231246246 	0.0000000000 	
21.5000000000 	0.6490805984 	0.0782878765 	0.1565452761 	0.0782879961 	0.0188924140 	0.0000000002 	0.0188917227 	0.0000000000 	
22.0000000000 	0.6829536655 	0.0717279037 	0.1434304113 	0.0717278888 	0.0150722605 	0.0000000003 	0.0150716691 	0.0000000000 	
22.5000000000 	0.7166077877 	0.0649586947 	0.1298967535 	0.0649584695 	0.0117810247 	0.0000000004 	0.0117804698 	0.0000000000 	
23.0000000000 	0.7491156535 	0.0581975781 	0.1163790660 	0.0581985487 	0.0090458626 	0.0000000003 	0.0090454805 	0.0000000000 	
23.5000000000 	0.7798153115 	0.0516250504 	0.1032387293 	0.0516266460 	0.0068378484 	0.0000000002 	0.0068375900 	0.0000000000 	
24.0000000000 	0.8082822087 	0.0453816776 	0.0907403774 	0.0453835246 	0.0050964129 	0.0000000002 	0.0050962304 	0.0000000000 	
24.5000000000 	0.8342507264 	0.0395631449 	0.0790972773 	0.0395650638 	0.0037519728 	0.0000000002 	0.0037518531 	0.0000000000 	
25.0000000000 	0.8576214576 	0.0342311051 	0.0684306919 	0.0342329816 	0.0027318202 	0.0000000001 	0.0027317442 	0.0000000000 	
25.5000000000 	0.8784083919 	0.0294154580 	0.0587992028 	0.0294172514 	0.0019692919 	0.0000000001 	0.0019692449 	0.0000000000 	
26.0000000000 	0.8967079550 	0.0251208451 	0.0502112733 	0.0251243618 	0.0014068016 	0.0000000002 	0.0014067590 	0.0000000000 	
26.5000000000 	0.9126758034 	0.0213329914 	0.0426376152 	0.0213374948 	0.0009967113 	0.0000000003 	0.0009966787 	0.0000000000 	
27.0000000000 	0.9264989789 	0.0180242467 	0.0360225949 	0.0180292093 	0.0007008482 	0.0000000003 	0.0007008256 	0.0000000000 	
27.5000000000 	0.9383816215 	0.0151585010 	0.0302937516 	0.0151635691 	0.0004894002 	0.0000000004 	0.0004893856 	0.0000000000 	
28.0000000000 	0.9485322586 	0.0126950093 	0.0253694505 	0.0126999681 	0.0003395673 	0.0000000004 	0.0003395585 	0.0000000000 	
28.5000000000 	0.9571547948 	0.0105913938 	0.0211647893 	0.0105960858 	0.0002342171 	0.0000000004 	0.0002342123 	0.0000000000 	
29.0000000000 	0.9644419835 	0.0088056685 	0.0175957632 	0.0088103352 	0.0001606678 	0.0000000003 	0.0001606620 	0.0000000000 	
29.5000000000 	0.9705732132 	0.0072977899 	0.0145822368 	0.0073022383 	0.0001096538 	0.0000000003 	0.0001096486 	0.0000000000 	
30.0000000000 	0.9757105804 	0.0060305566 	0.0120497481 	0.0060346617 	0.0000744823 	0.0000000002 	0.0000744782 	0.0000000000 	
30.5000000000 	0.9699907550 	0.0099227433 	0.0099322929 	0.0099260919 	0.0000495809 	0.0001030294 	0.0000495088 	0.0000000000 	
31.0000000000 	0.9612851033 	0.0151249842 	0.0081760525 	0.0151290101 	0.0000325875 	0.0001930534 	0.0000325762 	0.0000000000 	
31.5000000000 	0.9602815307 	0.0163616235 	0.0067178161 	0.0163690325 	0.0000210671 	0.0001964914 	0.0000211701 	0.0000000001 	
32.0000000000 	0.9667287580 	0.0137700329 	0.0055100347 	0.0137777079 	0.0000134898 	0.0001497926 	0.0000135991 	0.0000000004 	
32.5000000000 	0.9767854741 	0.0092748793 	0.0045073096 	0.0092832327 	0.0000085036 	0.0000924880 	0.0000085991 	0.0000000006 	
33.0000000000 	0.9864672203 	0.0048687387 	0.0036772333 	0.0048764820 	0.0000053087 	0.0000463054 	0.0000054059 	0.0000000005 	
33.5000000000 	0.9929985853 	0.0019619349 	0.0029915087 	0.0019693218 	0.0000033054 	0.0000175448 	0.0000033848 	0.0000000002 	
34.0000000000 	0.9949839798 	0.0012592094 	0.0024271954 	0.0012653925 	0.0000020635 	0.0000038578 	0.0000021102 	0.0000000001 	
34.5000000000 	0.9922386379 	0.0028662499 	0.0019631560 	0.0028718574 	0.0000012748 	0.0000000256 	0.0000013097 	0.0000000000 	
35.0000000000 	0.9853866949 	0.0064804461 	0.0015826593 	0.0064859853 	0.0000007920 	0.0000015589 	0.0000008180 	0.0000000001 	
35.5000000000 	0.9755001434 	0.0115744493 	0.0012739141 	0.0115793221 	0.0000004855 	0.0000051027 	0.0000005015 	0.0000000001 	
36.0000000000 	0.9638132933 	0.0175408036 	0.0010230390 	0.0175451591 	0.0000002928 	0.0000085601 	0.0000003060 	0.0000000001 	
36.5000000000 	0.9515011549 	0.0237968543 	0.0008198932 	0.0238010342 	0.0000001763 	0.0000110122 	0.0000001853 	0.0000000001 	
37.0000000000 	0.9395706013 	0.0298433771 	0.0006558656 	0.0298463429 	0.0000001097 	0.0000122456 	0.0000001145 	0.0000000002 	
37.5000000000 	0.9287943870 	0.0352960969 	0.0005232965 	0.0353009335 	0.0000000699 	0.0000123650 	0.0000000726 	0.0000000002 	
38.0000000000 	0.9197002771 	0.0398982959 	0.0004170179 	0.0398972951 	0.0000000450 	0.0000117445 	0.0000000464 	0.0000000002 	
38.5000000000 	0.9126038084 	0.0434897996 	0.0003316579 	0.0434890873 	0.0000000294 	0.0000105641 	0.0000000299 	0.0000000001 	
39.0000000000 	0.9076116642 	0.0460180833 	0.0002638233 	0.0460203276 	0.0000000138 	0.0000089988 	0.0000000159 	0.0000000001 	
39.5000000000 	0.9046993378 	0.0475017048 	0.0002096677 	0.0475029265 	0.0000000072 	0.0000074212 	0.0000000102 	0.0000000001 	
40.0000000000 	0.9037322264 	0.0480082941 	0.0001661342 	0.0480073852 	0.0000000043 	0.0000059422 	0.0000000082 	0.0000000000 	
40.5000000000 	0.9044926056 	0.0476454471 	0.0001317526 	0.0476443040 	0.0000000037 	0.0000046474 	0.0000000078 	0.0000000000 	
41.0000000000 	0.9067213307 	0.0465430641 	0.0001041054 	0.0465447839 	0.0000000041 	0.0000035768 	0.0000000077 	0.0000000000 	
41.5000000000 	0.9101453782 	0.0448408569 	0.0000824711 	0.0448438562 	0.0000000055 	0.0000026907 	0.0000000095 	0.0000000000 	
42.0000000000 	0.9145023261 	0.0426689106 	0.0000660070 	0.0426755545 	0.0000000071 	0.0000019822 	0.0000000110 	0.0000000000 	
42.5000000000 	0.9195386313 	0.0401558881 	0.0000517633 	0.0401663702 	0.0000000054 	0.0000014430 	0.0000000087 	0.0000000000 	
43.0000000000 	0.9250493775 	0.0373917469 	0.0000405202 	0.0374305080 	0.0000000048 	0.0000010293 	0.0000000070 	0.0000000000 	
43.5000000000 	0.9307759742 	0.0345293619 	0.0000315364 	0.0345724432 	0.0000000043 	0.0000007120 	0.0000000062 	0.0000000000 	
44.0000000000 	0.9365937619 	0.0316179491 	0.0000245430 	0.0316721477 	0.0000000049 	0.0000004822 	0.0000000063 	0.0000000000 	
44.5000000000 	0.9423254944 	0.0287614638 	0.0000191410 	0.0288018578 	0.0000000054 	0.0000003380 	0.0000000065 	0.0000000000 	
45.0000000000 	0.9479041234 	0.0259770699 	0.0000150923 	0.0260106630 	0.0000000060 	0.0000002363 	0.0000000070 	0.0000000000 	
45.5000000000 	0.9531316156 	0.0233611731 	0.0000128991 	0.0234002376 	0.0000000066 	0.0000001681 	0.0000000084 	0.0000000000 	
46.0000000000 	0.9569685263 	0.0214319128 	0.0000191382 	0.0214815623 	0.0000000151 	0.0000001119 	0.0000000194 	0.0000000000 	
46.5000000000 	0.9579018358 	0.0209585809 	0.0000376344 	0.0210113080 	0.0000000365 	0.0000000719 	0.0000000488 	0.0000000000 	
47.0000000000 	0.9548662377 	0.0224642796 	0.0000618435 	0.0225101029 	0.0000000689 	0.0000000461 	0.0000000860 	0.0000000000 	
47.5000000000 	0.9477715402 	0.0260013002 	0.0000830175 	0.0260423161 	0.0000000867 	0.0000000345 	0.0000000999 	0.0000000000 	
48.0000000000 	0.9372168838 	0.0312750686 	0.0000966474 	0.0313105569 	0.0000000964 	0.0000000254 	0.0000001211 	0.0000000000 	
48.5000000000 	0.9241806741 	0.0377904799 	0.0001008154 	0.0378176376 	0.0000000876 	0.0000000205 	0.0000001197 	0.0000000000 	
49.0000000000 	0.9099586882 	0.0449073115 	0.0000968508 	0.0449217058 	0.0000000873 	0.0000000142 	0.0000001214 	0.0000000000 	
49.5000000000 	0.8957411513 	0.0520275543 	0.0000876510 	0.0520306046 	0.0000000853 	0.0000000087 	0.0000001037 	0.0000000000 	
50.0000000000 	0.8825299263 	0.0586443720 	0.0000772318 	0.0586373963 	0.0000000809 	0.0000000039 	0.0000000937 	0.0000000000 	
50.5000000000 	0.8711579752 	0.0643459462 	0.0000663105 	0.0643186237 	0.0000000634 	0.0000000029 	0.0000000742 	0.0000000000 	
51.0000000000 	0.8621041366 	0.0689023958 	0.0000544117 	0.0688322337 	0.0000000067 	0.0000000013 	0.0000000023 	0.0000000000 	
51.5000000000 	0.8556262172 	0.0721306350 	0.0000461232 	0.0720889742 	0.0000000032 	0.0000000007 	0.0000000017 	0.0000000000 	
52.0000000000 	0.8518580447 	0.0740228598 	0.0000407323 	0.0739939399 	0.0000000022 	0.0000000006 	0.0000000019 	0.0000000000 	
52.5000000000 	0.8506311816 	0.0746276070 	0.0000374910 	0.0746178829 	0.0000000014 	0.0000000013 	0.0000000030 	0.0000000000 	
53.0000000000 	0.8517898726 	0.0740434667 	0.0000356806 	0.0740425656 	0.0000000036 	0.0000000030 	0.0000000041 	0.0000000000 	
53.5000000000 	0.8550293443 	0.0724175413 	0.0000347310 	0.0724266532 	0.0000000057 	0.0000000056 	0.0000000114 	0.0000000000 	
54.0000000000 	0.8600138123 	0.0699198802 	0.0000340826 	0.0699399434 	0.0000000071 	0.0000000068 	0.0000000145 	0.0000000000 	
54.5000000000 	0.8663863916 	0.0667303416 	0.0000333896 	0.0667559089 	0.0000000038 	0.0000000070 	0.0000000162 	0.0000000000 	
55.0000000000 	0.8737965072 	0.0630193607 	0.0000323161 	0.0630509029 	0.0000000051 	0.0000000068 	0.0000000189 	0.0000000000 	
55.5000000000 	0.8819465085 	0.0589421475 	0.0000308231 	0.0589759614 	0.0000000026 	0.0000000069 	0.0000000128 	0.0000000000 	
56.0000000000 	0.8905339463 	0.0546531304 	0.0000289712 	0.0546771256 	0.0000000039 	0.0000000073 	0.0000000131 	0.0000000000 	
56.5000000000 	0.8993200259 	0.0502649784 	0.0000268872 	0.0502838752 	0.0000000065 	0.0000000084 	0.0000000211 	0.0000000000 	
57.0000000000 	0.9081025441 	0.0458766251 	0.0000244992 	0.0458896096 	0.0000000066 	0.0000000082 	0.0000000163 	0.0000000000 	
57.5000000000 	0.9166875000 	0.0415854025 	0.0000219761 	0.0415914487 	0.0000000036 	0.0000000048 	0.0000000122 	0.0000000000 	
58.0000000000 	0.9249411290 	0.0374586540 	0.0000194169 	0.0374638887 	0.0000000019 	0.0000000035 	0.0000000067 	0.0000000000 	
58.5000000000 	0.9327674299 	0.0335459316 	0.0000169801 	0.0335494393 	0.0000000042 	0.0000000034 	0.0000000082 	0.0000000000 	
59.0000000000 	0.9401020464 	0.0298806086 	0.0000146292 	0.0298778683 	0.0000000053 	0.0000000033 	0.0000000084 	0.0000000000 	
59.5000000000 	0.9469010513 	0.0264808602 	0.0000124305 	0.0264767350 	0.0000000059 	0.0000000033 	0.0000000080 	0.0000000000 	
60.0000000000 	0.9531494133 	0.0233590132 	0.0000102728 	0.0233500851 	0.0000000044 	0.0000000036 	0.0000000061 	0.0000000000 	
60.5000000000 	0.9588048037 	0.0205300080 	0.0000092233 	0.0205205391 	0.0000000081 	0.0000015896 	0.0000000072 	0.0000000000 	
61.0000000000 	0.9635956397 	0.0181204158 	0.0000290634 	0.0181030918 	0.0000000227 	0.0000157443 	0.0000000210 	0.0000000000 	
61.5000000000 	0.9672189200 	0.0162197654 	0.0001821635 	0.0161995979 	0.0000001536 	0.0000436270 	0.0000001533 	0.0000000000 	
62.0000000000 	0.9696232886 	0.0147133498 	0.0007499487 	0.0147034392 	0.0000010529 	0.0000695778 	0.0000010666 	0.0000000000 	
62.5000000000 	0.9708113957 	0.0133925985 	0.0021803637 	0.0133870208 	0.0000044602 	0.0000802982 	0.0000044370 	0.0000000000 	
63.0000000000 	0.9706721506 	0.0120387258 	0.0050117781 	0.0120324762 	0.0000118443 	0.0000731096 	0.0000117842 	0.0000000000 	
63.5000000000 	0.9689603885 	0.0105159004 	0.0097547080 	0.0105195927 	0.0000222125 	0.0000537220 	0.0000222961 	0.0000000000 	
64.0000000000 	0.9652182512 	0.0088599364 	0.0168141317 	0.0088610449 	0.0000306701 	0.0000306437 	0.0000308350 	0.0000000000 	
64.5000000000 	0.9590339546 	0.0071871300 	0.0263633297 	0.0071885614 	0.0000308087 	0.0000119022 	0.0000309095 	0.0000000000 	
65.0000000000 	0.9500647279 	0.0056726904 	0.0383883024 	0.0056755505 	0.0000197808 	0.0000019855 	0.0000198876 	0.0000000000 	
65.5000000000 	0.9382631737 	0.0044989330 	0.0525758464 	0.0044945497 	0.0000043041 	0.0000002248 	0.0000045633 	0.0000000000 	
66.0000000000 	0.9237683476 	0.0038136369 	0.0684253402 	0.0038073612 	0.0000042582 	0.0000049046 	0.0000042794 	0.0000000000 	
66.5000000000 	0.9070093450 	0.0036945208 	0.0853173656 	0.0036897742 	0.0000499882 	0.0000135959 	0.0000497193 	0.0000000000 	
67.0000000000 	0.8886193787 	0.0041610015 	0.1025045172 	0.0041587378 	0.0001756982 	0.0000238231 	0.0001761746 	0.0000000001 	
67.5000000000 	0.8693060086 	0.0051621325 	0.1193214615 	0.0051640857 	0.0004120158 	0.0000332937 	0.0004137445 	0.0000000001 	
68.0000000000 	0.8499582780 	0.0066156926 	0.1350157518 	0.0066194682 	0.0007766300 	0.0000408260 	0.0007783633 	0.0000000003 	
68.5000000000 	0.8312612729 	0.0084080891 	0.1491265172 	0.0084150797 	0.0012685217 	0.0000456722 	0.0012705436 	0.0000000004 	
69.0000000000 	0.8139872414 	0.0104229711 	0.1611633408 	0.0104323594 	0.0018693742 	0.0000475732 	0.0018725023 	0.0000000007 	
69.5000000000 	0.7986243657 	0.0125606607 	0.1708930090 	0.0125751835 	0.0025461653 	0.0000467549 	0.0025475060 	0.0000000007 	
70.0000000000 	0.7855949937 	0.0147123734 	0.1782060294 	0.0147304918 	0.0032479322 	0.0000438541 	0.0032515834 	0.0000000004 	
70.5000000000 	0.7751490129 	0.0168086479 	0.1831078312 	0.0168172986 	0.0039293900 	0.0000395818 	0.0039325679 	0.0000000002 	
71.0000000000 	0.7674212373 	0.0187682511 	0.1856973453 	0.0187708553 	0.0045444994 	0.0000349516 	0.0045466926 	0.0000000002 	
71.5000000000 	0.7624956843 	0.0205296908 	0.1860862542 	0.0205334454 	0.0050524162 	0.0000298842 	0.0050546417 	0.0000000002 	
72.0000000000 	0.7603036626 	0.0220658449 	0.1844560551 	0.0220736180 	0.0054263213 	0.0000248849 	0.0054288850 	0.0000000002 	
72.5000000000 	0.7606610186 	0.0233543127 	0.1810604351 	0.0233645302 	0.0056569985 	0.0000201986 	0.0056614130 	0.0000000001 	
73.0000000000 	0.7632968387 	0.0243735667 	0.1762366251 	0.0243722892 	0.0057388198 	0.0000160498 	0.0057421315 	0.0000000002 	
73.5000000000 	0.7680097242 	0.0251058137 	0.1701768587 	0.0250987198 	0.0056852577 	0.0000125388 	0.0056830158 	0.0000000001 	
