##input
##{
##time_step=0.05;
##time_end = 100;
##Gamma_l =0.5;  //also Gamma_l is square root of the decay
##Gamma_m =0.50;
##Gamma_r =0.5;
##Nbin =2;
##svdcutoff = 1E-8;
##maxnumberofSV = 5000;
##left_fb = 8; //ATTENTION left-middle  .... avoid feedback 2, avoid feedback times uneven
##right_fb = 4; //ATTENTION middle-right ... left_fb >= right_fb, works for right_fb=1
##init_000 = 0.; 
##init_001 = 0.0*57735027; 
##init_010 = 0.0*57735027; 
##init_011 = 0.*0.57735027; 
##init_100 = 0*0.57735027; 
##init_101 = 0.*0.57735027; 
##init_110 = 0.*0.57735027;//70710678118; 
##init_111 = 1.0;//70710678118; 
##phi = 1.5 ; // 4 --> 4pi --> all phases zero!!!
##INDIVIDUAL_PHASE_CHOICE = 0; // if this is zero, the phase is set with phi=phi_l=phi_r, and phi_l=phi*l_fb/(l_fb+r_fb)
##phi_l  = 0.0;  // as multiple of pi phi_l=phi_r, and 
##phi_ml = 0.0; // phi_m chooses phi_ml, and fixes phi_mr/0.5=1.-phi_ml/0.5
##phi_mr = 0.0; // phi_m chooses phi_ml, and fixes phi_mr/0.5=1.-phi_ml/0.5
##phi_r  = 0.0;  // ATTENTION !! has no influence is equal to phi_r
##}
##// =ATTENTION feedback counts between left and right, middle is half the feedback, effective first feedback effect after fb/2
##// =ATTENTION exclude feedback time of 2, i.e. no distance between left - middle - right bin
##// =ATTENTION exclude uneven feedback times of 2n+1, i.e. asymmetric swap necessary between left - middle - right bin
##// =ATTENTION exclude complex valued initial states, not yet implemented
##
##// 1./sqrt(2.) = 0.70710678118
##// 1./sqrt(3.) = 0.57735027
##// 2pi=6.283185307179586476925286766559  
##// 4pi=12,566370614359172953850573533118‬
0.0000000000 	 1.0000000000 	 1.0000000000 	 1.0000000000 	 1.0000000000 
0.0500000000 	 0.9752076401 	 0.9752076401 	 0.9752076401 	 1.0000000000 
0.1000000000 	 0.9510299414 	 0.9510299414 	 0.9510299414 	 1.0000000000 
0.1500000000 	 0.9274516648 	 0.9274516648 	 0.9274516648 	 1.0000000000 
0.2000000000 	 0.9044579494 	 0.9044579494 	 0.9044579494 	 1.0000000000 
0.2500000000 	 0.8820343024 	 0.8821879677 	 0.8821879677 	 1.0000000000 
0.3000000000 	 0.8601759011 	 0.8602304490 	 0.8602187800 	 0.9999997950 
0.3500000000 	 0.8388529322 	 0.8386007532 	 0.8385810249 	 0.9999995322 
0.4000000000 	 0.8180556981 	 0.8173098451 	 0.8172875813 	 0.9999949150 
0.4500000000 	 0.7979265022 	 0.7966382788 	 0.7964624465 	 0.9999947245 
0.5000000000 	 0.7781016854 	 0.7763437386 	 0.7762092136 	 0.9999944526 
0.5500000000 	 0.7586012105 	 0.7564369029 	 0.7565100320 	 0.9999941667 
0.6000000000 	 0.7394337391 	 0.7369253784 	 0.7373489118 	 0.9999940174 
0.6500000000 	 0.7207757480 	 0.7178151341 	 0.7188737064 	 0.9999937928 
0.7000000000 	 0.7023295658 	 0.6991092855 	 0.7007606749 	 0.9999935276 
0.7500000000 	 0.6841194639 	 0.6808116159 	 0.6830149197 	 0.9999932610 
0.8000000000 	 0.6661671585 	 0.6629210471 	 0.6656378063 	 0.9999930043 
0.8500000000 	 0.6484180075 	 0.6453654638 	 0.6486317454 	 0.9999927686 
0.9000000000 	 0.6308289424 	 0.6280834875 	 0.6319967613 	 0.9999928803 
0.9500000000 	 0.6134402679 	 0.6110901882 	 0.6157360045 	 0.9999926089 
1.0000000000 	 0.5962820661 	 0.5944029310 	 0.5998439500 	 0.9999925420 
1.0500000000 	 0.5793803717 	 0.5780288562 	 0.5843179514 	 0.9999924419 
1.1000000000 	 0.5627620868 	 0.5619703876 	 0.5691497026 	 0.9999922125 
1.1500000000 	 0.5464478997 	 0.5462388689 	 0.5543378908 	 0.9999920018 
1.2000000000 	 0.5304572278 	 0.5308363495 	 0.5398813999 	 0.9999916912 
1.2500000000 	 0.5148562259 	 0.5157711311 	 0.5258342583 	 0.9999914808 
1.3000000000 	 0.4996991816 	 0.5010481545 	 0.5122384711 	 0.9999912481 
1.3500000000 	 0.4849843780 	 0.4866705869 	 0.4990788325 	 0.9999910433 
1.4000000000 	 0.4707046132 	 0.4726387409 	 0.4863408424 	 0.9999907469 
1.4500000000 	 0.4568535037 	 0.4589545369 	 0.4740111638 	 0.9999904859 
1.5000000000 	 0.4434223292 	 0.4456177561 	 0.4620760057 	 0.9999901644 
1.5500000000 	 0.4304046733 	 0.4326265100 	 0.4505220832 	 0.9999898615 
1.6000000000 	 0.4177914240 	 0.4199781609 	 0.4393345937 	 0.9999895218 
1.6500000000 	 0.4055707741 	 0.4076716526 	 0.4285029697 	 0.9999892413 
1.7000000000 	 0.3937356844 	 0.3957018672 	 0.4180150921 	 0.9999889850 
1.7500000000 	 0.3822761053 	 0.3840652082 	 0.4078563258 	 0.9999887133 
1.8000000000 	 0.3711821956 	 0.3727565608 	 0.3980160109 	 0.9999884130 
1.8500000000 	 0.3604432565 	 0.3617703342 	 0.3884813645 	 0.9999880898 
1.9000000000 	 0.3500501078 	 0.3510996903 	 0.3792415620 	 0.9999878379 
1.9500000000 	 0.3399901083 	 0.3407419607 	 0.3702843533 	 0.9999876119 
2.0000000000 	 0.3302549151 	 0.3306875073 	 0.3615970667 	 0.9999872943 
2.0500000000 	 0.3208339683 	 0.3209317637 	 0.3531707190 	 0.9999869928 
2.1000000000 	 0.3117166668 	 0.3114688441 	 0.3449951451 	 0.9999867544 
2.1500000000 	 0.3028941222 	 0.3022917161 	 0.3370572664 	 0.9999864314 
2.2000000000 	 0.2943553850 	 0.2933933897 	 0.3293495413 	 0.9999861618 
2.2500000000 	 0.2860926538 	 0.2847678795 	 0.3218646300 	 0.9999858234 
2.3000000000 	 0.2780955308 	 0.2764082502 	 0.3145859332 	 0.9999855772 
2.3500000000 	 0.2703568116 	 0.2683087372 	 0.3075130884 	 0.9999853715 
2.4000000000 	 0.2628667994 	 0.2604628956 	 0.3006317644 	 0.9999851937 
2.4500000000 	 0.2556189167 	 0.2528645917 	 0.2939353687 	 0.9999849246 
2.5000000000 	 0.2486032657 	 0.2455061536 	 0.2874206825 	 0.9999846597 
2.5500000000 	 0.2418120013 	 0.2383842726 	 0.2810757020 	 0.9999844242 
2.6000000000 	 0.2352392446 	 0.2314908351 	 0.2748930488 	 0.9999841715 
2.6500000000 	 0.2288785297 	 0.2248216134 	 0.2688728704 	 0.9999838773 
2.7000000000 	 0.2227210411 	 0.2183670125 	 0.2630010187 	 0.9999836018 
2.7500000000 	 0.2167618289 	 0.2121245220 	 0.2572771482 	 0.9999833647 
2.8000000000 	 0.2109939223 	 0.2060879234 	 0.2516925936 	 0.9999830296 
2.8500000000 	 0.2054117871 	 0.2002536341 	 0.2462432416 	 0.9999827756 
2.9000000000 	 0.2000092161 	 0.1946110966 	 0.2409249800 	 0.9999825673 
2.9500000000 	 0.1947808544 	 0.1891581652 	 0.2357291830 	 0.9999822801 
3.0000000000 	 0.1897207719 	 0.1838889304 	 0.2306526528 	 0.9999819883 
3.0500000000 	 0.1848236571 	 0.1787985483 	 0.2256918132 	 0.9999817909 
3.1000000000 	 0.1800854611 	 0.1738815223 	 0.2208429869 	 0.9999815073 
3.1500000000 	 0.1755007734 	 0.1691332060 	 0.2161006967 	 0.9999811820 
3.2000000000 	 0.1710644173 	 0.1645494110 	 0.2114611819 	 0.9999810129 
3.2500000000 	 0.1667724838 	 0.1601242681 	 0.2069219035 	 0.9999806289 
3.3000000000 	 0.1626197695 	 0.1558534896 	 0.2024763503 	 0.9999806764 
3.3500000000 	 0.1586022162 	 0.1517333260 	 0.1981257697 	 0.9999805698 
3.4000000000 	 0.1547154875 	 0.1477581343 	 0.1938645140 	 0.9999803699 
3.4500000000 	 0.1509561573 	 0.1439240342 	 0.1896898608 	 0.9999800433 
3.5000000000 	 0.1473206511 	 0.1402273048 	 0.1855980133 	 0.9999799455 
3.5500000000 	 0.1438045910 	 0.1366639554 	 0.1815897371 	 0.9999796282 
3.6000000000 	 0.1404043405 	 0.1332292832 	 0.1776574148 	 0.9999795064 
3.6500000000 	 0.1371163790 	 0.1299204486 	 0.1738011071 	 0.9999793501 
3.7000000000 	 0.1339381191 	 0.1267318243 	 0.1700194373 	 0.9999792807 
3.7500000000 	 0.1308658118 	 0.1236604529 	 0.1663101643 	 0.9999792823 
3.8000000000 	 0.1278953328 	 0.1207018108 	 0.1626714444 	 0.9999790281 
3.8500000000 	 0.1250250273 	 0.1178531455 	 0.1591000821 	 0.9999791400 
3.9000000000 	 0.1222501904 	 0.1151113335 	 0.1555930294 	 0.9999794794 
3.9500000000 	 0.1195686569 	 0.1124720854 	 0.1521487506 	 0.9999789577 
4.0000000000 	 0.1169778852 	 0.1099325994 	 0.1487719540 	 0.9999787261 
4.0500000000 	 0.1144750475 	 0.1074890518 	 0.1454518007 	 0.9999784256 
4.1000000000 	 0.1120560911 	 0.1051386671 	 0.1421908177 	 0.9999781790 
4.1500000000 	 0.1097198408 	 0.1028775055 	 0.1389897185 	 0.9999781584 
4.2000000000 	 0.1074629136 	 0.1007038497 	 0.1358461601 	 0.9999778254 
4.2500000000 	 0.1052829001 	 0.0986143779 	 0.1327606814 	 0.9999775915 
4.3000000000 	 0.1031779507 	 0.0966053724 	 0.1297262103 	 0.9999777701 
4.3500000000 	 0.1011450971 	 0.0946745557 	 0.1267467435 	 0.9999775157 
4.4000000000 	 0.0991813959 	 0.0928194151 	 0.1238186590 	 0.9999773440 
4.4500000000 	 0.0972858525 	 0.0910364190 	 0.1209416983 	 0.9999773098 
4.5000000000 	 0.0954558571 	 0.0893237529 	 0.1181160106 	 0.9999770973 
4.5500000000 	 0.0936889250 	 0.0876788206 	 0.1153408004 	 0.9999769197 
4.6000000000 	 0.0919836152 	 0.0860987907 	 0.1126144007 	 0.9999771389 
4.6500000000 	 0.0903371309 	 0.0845809942 	 0.1099359587 	 0.9999770237 
4.7000000000 	 0.0887479506 	 0.0831236244 	 0.1073059308 	 0.9999768095 
4.7500000000 	 0.0872140847 	 0.0817248150 	 0.1047221978 	 0.9999766690 
4.8000000000 	 0.0857333659 	 0.0803818687 	 0.1021852329 	 0.9999764185 
4.8500000000 	 0.0843043957 	 0.0790920146 	 0.0996928532 	 0.9999763137 
4.9000000000 	 0.0829253922 	 0.0778538066 	 0.0972456022 	 0.9999760738 
4.9500000000 	 0.0815940488 	 0.0766657766 	 0.0948444780 	 0.9999757068 
# end of calculation 2019_09_25_12_23_00 
# time difference 00_00_00_00_03_-18 -- in Minutes 3 in Seconds 162 
