##input
##{
##time_step=0.5;
##time_end = 400;
##Gamma_l =0.50;
##Gamma_m =0.50;
##Gamma_r =0.50;
##Nbin =2;
##svdcutoff = 1E-7;
##maxnumberofSV = 5000;
##feedback_time = 10; //ATTENTION avoid feedback 2, avoid feedback times uneven
##init_000 = 0.; 
##init_001 = 0.0; 
##init_010 = 0.0; 
##init_011 = 0.; 
##init_100 = 0.0; 
##init_101 = 0.; 
##init_110 = 0.; 
##init_111 = 1.; 
##phi_l = 1.25;  // as multiple of pi
##phi_m = 1.250;  // as multiple of pi
##phi_r = 1.250;  // as multiple of pi
##}
##// =ATTENTION feedback counts between left and right, middle is half the feedback, effective first feedback effect after fb/2
##// =ATTENTION exclude feedback time of 2, i.e. no distance between left - middle - right bin
##// =ATTENTION exclude uneven feedback times of 2n+1, i.e. asymmetric swap necessary between left - middle - right bin
##// =ATTENTION exclude complex valued initial states, not yet implemented
##
##// 1./sqrt(2.) = 0.70710678118
##// 1./sqrt(3.) = 0.57735027
0.0000000000 	0.0000000000 	0.0000000000 	0.0000000000 	0.0000000000 	0.0000000000 	0.0000000000 	0.0000000000 	1.0000000000 	1.0000000000 	
0.5000000000 	0.0121429101 	0.0406874917 	0.0406874917 	0.1363312842 	0.0406874917 	0.1363312842 	0.1363312842 	0.4568018181 	1.0000010559 	
1.0000000000 	0.0673530795 	0.0981879209 	0.0981879209 	0.1431389344 	0.0981879209 	0.1431389344 	0.1431389344 	0.2086679010 	1.0000015463 	
1.5000000000 	0.1602783327 	0.1347861647 	0.1347861447 	0.1133483632 	0.1347861689 	0.1133483594 	0.1133483651 	0.0953198766 	1.0000017752 	
2.0000000000 	0.2723418570 	0.1478135367 	0.1478135104 	0.0802257150 	0.1478135429 	0.0802257106 	0.0802257171 	0.0435422929 	1.0000018826 	
2.5000000000 	0.3875099803 	0.1440132439 	0.1440132204 	0.0535206800 	0.1440132514 	0.0535206768 	0.0535206820 	0.0198901986 	1.0000019333 	
3.0000000000 	0.4481150054 	0.1376768234 	0.1571891804 	0.0351448394 	0.1376768428 	0.0414495601 	0.0351448463 	0.0076048772 	1.0000019751 	
3.5000000000 	0.4799352193 	0.1330840964 	0.1735551254 	0.0223829653 	0.1330839563 	0.0333350476 	0.0223829977 	0.0022424253 	1.0000018334 	
4.0000000000 	0.5010187927 	0.1280339357 	0.1819033572 	0.0168513498 	0.1280380140 	0.0260047553 	0.0168505385 	0.0013007105 	1.0000014537 	
4.5000000000 	0.5199522777 	0.1220050056 	0.1808515346 	0.0168526689 	0.1220048868 	0.0195439666 	0.0168528346 	0.0019365445 	0.9999997195 	
5.0000000000 	0.5394366017 	0.1156486049 	0.1735420349 	0.0194002770 	0.1156488303 	0.0143360319 	0.0194013475 	0.0025855374 	0.9999992657 	
5.5000000000 	0.5557764055 	0.1089526596 	0.1656332903 	0.0192262687 	0.1089512366 	0.0171896565 	0.0192264205 	0.0050425686 	0.9999985062 	
6.0000000000 	0.5625665197 	0.1093222872 	0.1521301770 	0.0203386203 	0.1093230621 	0.0201659839 	0.0203349428 	0.0058154583 	0.9999970514 	
6.5000000000 	0.5685964523 	0.1122731068 	0.1390485741 	0.0204662278 	0.1122648126 	0.0214204424 	0.0204656456 	0.0054617514 	0.9999970130 	
7.0000000000 	0.5767871621 	0.1153241625 	0.1290376754 	0.0191500826 	0.1153175185 	0.0206144515 	0.0191473824 	0.0046154602 	0.9999938951 	
7.5000000000 	0.5878383641 	0.1168825081 	0.1225681356 	0.0169454207 	0.1168710414 	0.0183355046 	0.0169409938 	0.0036099847 	0.9999919530 	
8.0000000000 	0.5983098197 	0.1169023016 	0.1207086320 	0.0147106169 	0.1169010036 	0.0152693753 	0.0147073210 	0.0024822245 	0.9999912947 	
8.5000000000 	0.6055896980 	0.1160240791 	0.1236076507 	0.0126735487 	0.1160191869 	0.0119540505 	0.0126712293 	0.0014505705 	0.9999900138 	
9.0000000000 	0.6115820833 	0.1139765882 	0.1292083221 	0.0107829760 	0.1139709138 	0.0089496861 	0.0107834281 	0.0007334888 	0.9999874864 	
9.5000000000 	0.6170075975 	0.1108332949 	0.1360604712 	0.0091595521 	0.1108273155 	0.0066142241 	0.0091594756 	0.0003238807 	0.9999858117 	
10.0000000000 	0.6224307241 	0.1067479132 	0.1430930030 	0.0078895023 	0.1067440642 	0.0050578161 	0.0078888176 	0.0001322522 	0.9999840926 	
10.5000000000 	0.6290379012 	0.1014852035 	0.1497862370 	0.0069251794 	0.1014848334 	0.0042654369 	0.0069254125 	0.0000721615 	0.9999823654 	
11.0000000000 	0.6373061207 	0.0950497792 	0.1560779206 	0.0061372859 	0.0950481867 	0.0041299174 	0.0061405532 	0.0000902532 	0.9999800170 	
11.5000000000 	0.6464303493 	0.0880926671 	0.1618778450 	0.0054492294 	0.0880935522 	0.0044392145 	0.0054518743 	0.0001428169 	0.9999775487 	
12.0000000000 	0.6559056463 	0.0811663135 	0.1669273864 	0.0048385352 	0.0811649979 	0.0049368260 	0.0048414012 	0.0001935559 	0.9999746624 	
12.5000000000 	0.6654704015 	0.0746654178 	0.1709503629 	0.0043131691 	0.0746630005 	0.0053731918 	0.0043167748 	0.0002193890 	0.9999717075 	
13.0000000000 	0.6749549326 	0.0688118514 	0.1738165374 	0.0038879363 	0.0688105961 	0.0055824843 	0.0038898336 	0.0002155843 	0.9999697560 	
13.5000000000 	0.6841499549 	0.0636966852 	0.1756203633 	0.0035488529 	0.0636967593 	0.0055147279 	0.0035517146 	0.0001892874 	0.9999683454 	
14.0000000000 	0.6929599532 	0.0593396557 	0.1764372287 	0.0032640876 	0.0593416939 	0.0052052198 	0.0032663110 	0.0001515622 	0.9999657120 	
14.5000000000 	0.7014448606 	0.0557289127 	0.1762001518 	0.0030041023 	0.0557309067 	0.0047352544 	0.0030062916 	0.0001119357 	0.9999624160 	
15.0000000000 	0.7097531687 	0.0528291067 	0.1747538375 	0.0027574279 	0.0528297752 	0.0041975842 	0.0027614311 	0.0000764655 	0.9999587968 	
15.5000000000 	0.7181184724 	0.0505540067 	0.1719438696 	0.0025320211 	0.0505564977 	0.0036690257 	0.0025352867 	0.0000476243 	0.9999568040 	
16.0000000000 	0.7268604672 	0.0487571381 	0.1676842864 	0.0023327283 	0.0487616448 	0.0031970145 	0.0023346813 	0.0000263153 	0.9999542760 	
16.5000000000 	0.7362345466 	0.0472867829 	0.1619996825 	0.0021637165 	0.0472923100 	0.0027987590 	0.0021636420 	0.0000126185 	0.9999520581 	
17.0000000000 	0.7462794168 	0.0460575391 	0.1550196407 	0.0020255977 	0.0460630838 	0.0024734244 	0.0020257116 	0.0000049802 	0.9999493942 	
17.5000000000 	0.7568050424 	0.0450611300 	0.1469822764 	0.0019125921 	0.0450665239 	0.0022114028 	0.0019132376 	0.0000015222 	0.9999537272 	
18.0000000000 	0.7674524515 	0.0443338583 	0.1382053544 	0.0018118066 	0.0443410029 	0.0019937465 	0.0018127238 	0.0000005713 	0.9999515153 	
18.5000000000 	0.7777821441 	0.0439325249 	0.1290733758 	0.0017100248 	0.0439396631 	0.0017995779 	0.0017100942 	0.0000008515 	0.9999482562 	
19.0000000000 	0.7874079355 	0.0438864969 	0.1199501470 	0.0015953992 	0.0438937690 	0.0016151319 	0.0015961490 	0.0000014992 	0.9999465276 	
19.5000000000 	0.7959964842 	0.0441907155 	0.1111951282 	0.0014660751 	0.0441950995 	0.0014343356 	0.0014653358 	0.0000021635 	0.9999453374 	
20.0000000000 	0.8033450959 	0.0447899811 	0.1031058756 	0.0013214565 	0.0447940246 	0.0012588670 	0.0013210512 	0.0000026436 	0.9999389953 	
20.5000000000 	0.8093477170 	0.0456020972 	0.0959432335 	0.0011700164 	0.0456075948 	0.0010943690 	0.0011678959 	0.0000027955 	0.9999357193 	
21.0000000000 	0.8140251903 	0.0465083954 	0.0898883213 	0.0010212632 	0.0465158282 	0.0009524606 	0.0010193400 	0.0000026790 	0.9999334780 	
21.5000000000 	0.8174812977 	0.0473804066 	0.0850719492 	0.0008857772 	0.0473846885 	0.0008409045 	0.0008842357 	0.0000023679 	0.9999316274 	
22.0000000000 	0.8198712376 	0.0480914519 	0.0815696871 	0.0007682896 	0.0480965180 	0.0007628730 	0.0007675356 	0.0000019776 	0.9999295703 	
22.5000000000 	0.8214124294 	0.0485273798 	0.0793991028 	0.0006723356 	0.0485275369 	0.0007165621 	0.0006707311 	0.0000015355 	0.9999276133 	
23.0000000000 	0.8223292884 	0.0485965247 	0.0785166929 	0.0005968300 	0.0485956027 	0.0006950517 	0.0005960418 	0.0000010960 	0.9999271282 	
23.5000000000 	0.8228331029 	0.0482473700 	0.0788335015 	0.0005388909 	0.0482446187 	0.0006882820 	0.0005386849 	0.0000006997 	0.9999251506 	
24.0000000000 	0.8231288953 	0.0474643685 	0.0801952267 	0.0004949213 	0.0474593416 	0.0006859373 	0.0004945821 	0.0000003961 	0.9999236689 	
24.5000000000 	0.8233978938 	0.0462529428 	0.0824233076 	0.0004608202 	0.0462459024 	0.0006798689 	0.0004605601 	0.0000001899 	0.9999214857 	
25.0000000000 	0.8237990468 	0.0446540884 	0.0852938824 	0.0004330557 	0.0446443029 	0.0006635313 	0.0004330635 	0.0000000003 	0.9999209714 	
25.5000000000 	0.8244693589 	0.0427192823 	0.0885626902 	0.0004097745 	0.0427084224 	0.0006348900 	0.0004100412 	0.0000000003 	0.9999144598 	
26.0000000000 	0.8255273707 	0.0405273293 	0.0919673808 	0.0003896838 	0.0405177230 	0.0005934473 	0.0003903458 	0.0000000003 	0.9999132810 	
26.5000000000 	0.8270302870 	0.0381590089 	0.0952834566 	0.0003712591 	0.0381537633 	0.0005419501 	0.0003722146 	0.0000000003 	0.9999119399 	
27.0000000000 	0.8290250794 	0.0357090361 	0.0982754517 	0.0003535792 	0.0357048546 	0.0004846227 	0.0003550528 	0.0000000003 	0.9999076768 	
27.5000000000 	0.8315218005 	0.0332666049 	0.1007590279 	0.0003362318 	0.0332584208 	0.0004260934 	0.0003380591 	0.0000000001 	0.9999062386 	
28.0000000000 	0.8344869534 	0.0309132532 	0.1025811581 	0.0003189015 	0.0309103415 	0.0003718957 	0.0003205226 	0.0000000002 	0.9999030262 	
28.5000000000 	0.8378993789 	0.0287301531 	0.1036200819 	0.0003005581 	0.0287248929 	0.0003243381 	0.0003016572 	0.0000000004 	0.9999010606 	
29.0000000000 	0.8416931563 	0.0267803884 	0.1038063986 	0.0002803268 	0.0267753233 	0.0002834889 	0.0002819396 	0.0000000005 	0.9999010223 	
29.5000000000 	0.8458097383 	0.0251053110 	0.1031166877 	0.0002590185 	0.0250981970 	0.0002501947 	0.0002610846 	0.0000000004 	0.9999002323 	
30.0000000000 	0.8501691671 	0.0237420709 	0.1015559948 	0.0002364575 	0.0237332125 	0.0002234855 	0.0002388327 	0.0000000008 	0.9998992217 	
30.5000000000 	0.8547043377 	0.0226961378 	0.0991781563 	0.0002135942 	0.0226864225 	0.0002030228 	0.0002162363 	0.0000000006 	0.9998979082 	
31.0000000000 	0.8593211352 	0.0219696722 	0.0960697547 	0.0001917155 	0.0219622009 	0.0001863921 	0.0001938347 	0.0000000006 	0.9998947058 	
31.5000000000 	0.8639449792 	0.0215442893 	0.0923538185 	0.0001704050 	0.0215364854 	0.0001730638 	0.0001723237 	0.0000000005 	0.9998953654 	
32.0000000000 	0.8684981761 	0.0213937374 	0.0881520776 	0.0001508479 	0.0213837268 	0.0001624949 	0.0001523103 	0.0000000004 	0.9998933714 	
32.5000000000 	0.8728690071 	0.0214852083 	0.0836385792 	0.0001334018 	0.0214770922 	0.0001525069 	0.0001344416 	0.0000000005 	0.9998902374 	
33.0000000000 	0.8769901963 	0.0217705860 	0.0789788701 	0.0001182841 	0.0217672278 	0.0001447807 	0.0001190091 	0.0000000003 	0.9998889544 	
33.5000000000 	0.8807774976 	0.0222139739 	0.0743352995 	0.0001056863 	0.0222111905 	0.0001381077 	0.0001061234 	0.0000000003 	0.9998878792 	
34.0000000000 	0.8841820656 	0.0227630627 	0.0698600291 	0.0000954168 	0.0227576985 	0.0001321008 	0.0000960827 	0.0000000002 	0.9998864562 	
34.5000000000 	0.8871419983 	0.0233674723 	0.0657095387 	0.0000876393 	0.0233618046 	0.0001266232 	0.0000884047 	0.0000000001 	0.9998834811 	
35.0000000000 	0.8896219285 	0.0239824975 	0.0620095837 	0.0000816040 	0.0239833400 	0.0001209283 	0.0000825668 	0.0000000001 	0.9998824489 	
35.5000000000 	0.8916358244 	0.0245664703 	0.0588451653 	0.0000774175 	0.0245630026 	0.0001145664 	0.0000782885 	0.0000000001 	0.9998807352 	
36.0000000000 	0.8931946005 	0.0250648994 	0.0562961966 	0.0000744234 	0.0250679846 	0.0001074718 	0.0000751326 	0.0000000001 	0.9998807091 	
36.5000000000 	0.8943208930 	0.0254514993 	0.0544035211 	0.0000717871 	0.0254591753 	0.0000998650 	0.0000725862 	0.0000000001 	0.9998793272 	
37.0000000000 	0.8950889417 	0.0256895096 	0.0531728068 	0.0000689482 	0.0256969980 	0.0000916218 	0.0000697576 	0.0000000000 	0.9998785837 	
37.5000000000 	0.8955640706 	0.0257576662 	0.0525746598 	0.0000659327 	0.0257652627 	0.0000831024 	0.0000666611 	0.0000000000 	0.9998773555 	
38.0000000000 	0.8958125366 	0.0256419981 	0.0525724914 	0.0000630249 	0.0256478068 	0.0000748488 	0.0000633214 	0.0000000001 	0.9998760280 	
38.5000000000 	0.8959133132 	0.0253381974 	0.0530947345 	0.0000595573 	0.0253418387 	0.0000665978 	0.0000602319 	0.0000000001 	0.9998744708 	
39.0000000000 	0.8959322089 	0.0248472017 	0.0540734992 	0.0000556873 	0.0248485476 	0.0000590507 	0.0000565843 	0.0000000001 	0.9998727797 	
39.5000000000 	0.8959878257 	0.0241883787 	0.0553552744 	0.0000516303 	0.0241841316 	0.0000523502 	0.0000526150 	0.0000000001 	0.9998722059 	
40.0000000000 	0.8961184025 	0.0233721357 	0.0568706754 	0.0000472942 	0.0233675591 	0.0000465428 	0.0000482176 	0.0000000001 	0.9998708273 	
40.5000000000 	0.8963931932 	0.0224329242 	0.0584848477 	0.0000430371 	0.0224291782 	0.0000420572 	0.0000438393 	0.0000000000 	0.9998690770 	
41.0000000000 	0.8968838694 	0.0214018730 	0.0600634634 	0.0000389415 	0.0214012473 	0.0000387215 	0.0000395226 	0.0000000000 	0.9998676386 	
41.5000000000 	0.8976009273 	0.0203193694 	0.0615254802 	0.0000350694 	0.0203141446 	0.0000361235 	0.0000355363 	0.0000000001 	0.9998666508 	
42.0000000000 	0.8985828949 	0.0192151417 	0.0627580411 	0.0000313362 	0.0192120685 	0.0000341771 	0.0000317099 	0.0000000000 	0.9998653694 	
42.5000000000 	0.8998283186 	0.0181266589 	0.0636868826 	0.0000280698 	0.0181334395 	0.0000325972 	0.0000283403 	0.0000000001 	0.9998643071 	
43.0000000000 	0.9013319443 	0.0170977985 	0.0642442536 	0.0000251193 	0.0171070723 	0.0000314152 	0.0000253159 	0.0000000000 	0.9998629192 	
43.5000000000 	0.9030805712 	0.0161536730 	0.0643872838 	0.0000225961 	0.0161649439 	0.0000301778 	0.0000227318 	0.0000000000 	0.9998619776 	
44.0000000000 	0.9050142964 	0.0153272288 	0.0641122692 	0.0000204812 	0.0153364084 	0.0000290227 	0.0000206864 	0.0000000000 	0.9998603931 	
44.5000000000 	0.9071553540 	0.0146273169 	0.0633735799 	0.0000188229 	0.0146368007 	0.0000277359 	0.0000190728 	0.0000000000 	0.9998586833 	
45.0000000000 	0.9093964188 	0.0140730676 	0.0622390400 	0.0000174389 	0.0140829473 	0.0000263146 	0.0000176265 	0.0000000000 	0.9998528537 	
45.5000000000 	0.9117410762 	0.0136695866 	0.0607028445 	0.0000165180 	0.0136797373 	0.0000249244 	0.0000166966 	0.0000000000 	0.9998513836 	
46.0000000000 	0.9140878373 	0.0134162595 	0.0588610238 	0.0000157927 	0.0134282503 	0.0000231886 	0.0000159918 	0.0000000000 	0.9998483441 	
46.5000000000 	0.9164210648 	0.0133040913 	0.0567512495 	0.0000152743 	0.0133187311 	0.0000210466 	0.0000154180 	0.0000000000 	0.9998468757 	
47.0000000000 	0.9186620070 	0.0133256233 	0.0544707684 	0.0000147313 	0.0133377720 	0.0000193017 	0.0000149414 	0.0000000000 	0.9998451451 	
47.5000000000 	0.9207866646 	0.0134574029 	0.0520841588 	0.0000142472 	0.0134691551 	0.0000176467 	0.0000144372 	0.0000000000 	0.9998437127 	
48.0000000000 	0.9227475482 	0.0136801001 	0.0496815061 	0.0000137962 	0.0136901245 	0.0000159714 	0.0000139049 	0.0000000001 	0.9998429515 	
48.5000000000 	0.9245133148 	0.0139657894 	0.0473457741 	0.0000132425 	0.0139763102 	0.0000143510 	0.0000133147 	0.0000000001 	0.9998420968 	
49.0000000000 	0.9260631476 	0.0142936281 	0.0451447781 	0.0000126515 	0.0143010597 	0.0000128636 	0.0000127109 	0.0000000000 	0.9998408395 	
49.5000000000 	0.9273824091 	0.0146311506 	0.0431537161 	0.0000119904 	0.0146369806 	0.0000115069 	0.0000120469 	0.0000000001 	0.9998398007 	
50.0000000000 	0.9284751005 	0.0149542392 	0.0414140043 	0.0000112497 	0.0149622845 	0.0000103972 	0.0000112488 	0.0000000000 	0.9998385243 	
50.5000000000 	0.9293514619 	0.0152410597 	0.0399663389 	0.0000104853 	0.0152477786 	0.0000094692 	0.0000103557 	0.0000000000 	0.9998369494 	
51.0000000000 	0.9300240826 	0.0154687389 	0.0388400640 	0.0000096896 	0.0154743522 	0.0000086671 	0.0000094667 	0.0000000000 	0.9998350610 	
51.5000000000 	0.9305104502 	0.0156218223 	0.0380490212 	0.0000088623 	0.0156274128 	0.0000080182 	0.0000085614 	0.0000000000 	0.9998341483 	
52.0000000000 	0.9308448767 	0.0156876844 	0.0375830879 	0.0000080595 	0.0156935195 	0.0000075380 	0.0000077264 	0.0000000000 	0.9998324926 	
52.5000000000 	0.9310664168 	0.0156589473 	0.0374219660 	0.0000072994 	0.0156628375 	0.0000071814 	0.0000069568 	0.0000000000 	0.9998316052 	
53.0000000000 	0.9312099275 	0.0155302160 	0.0375342803 	0.0000066299 	0.0155362265 	0.0000069109 	0.0000062967 	0.0000000001 	0.9998304878 	
53.5000000000 	0.9313134383 	0.0153049633 	0.0378799606 	0.0000060428 	0.0153127408 	0.0000066468 	0.0000057106 	0.0000000000 	0.9998295034 	
54.0000000000 	0.9314150915 	0.0149923994 	0.0384050822 	0.0000055093 	0.0149988229 	0.0000063855 	0.0000052164 	0.0000000000 	0.9998285073 	
54.5000000000 	0.9315532888 	0.0145993528 	0.0390539702 	0.0000050608 	0.0146050650 	0.0000061395 	0.0000048178 	0.0000000000 	0.9998276949 	
55.0000000000 	0.9317581497 	0.0141398649 	0.0397694622 	0.0000046670 	0.0141439342 	0.0000058843 	0.0000044793 	0.0000000000 	0.9998264416 	
55.5000000000 	0.9320535812 	0.0136297391 	0.0404933684 	0.0000043430 	0.0136346203 	0.0000056020 	0.0000041955 	0.0000000001 	0.9998254497 	
56.0000000000 	0.9324698090 	0.0130866914 	0.0411634969 	0.0000040519 	0.0130915115 	0.0000052843 	0.0000039486 	0.0000000001 	0.9998247937 	
56.5000000000 	0.9330086678 	0.0125313362 	0.0417367825 	0.0000038017 	0.0125346457 	0.0000049614 	0.0000037422 	0.0000000001 	0.9998239374 	
57.0000000000 	0.9336935380 	0.0119780468 	0.0421600458 	0.0000035871 	0.0119800513 	0.0000046189 	0.0000035547 	0.0000000001 	0.9998234426 	
57.5000000000 	0.9345008730 	0.0114458477 	0.0424172269 	0.0000034202 	0.0114480084 	0.0000042517 	0.0000033821 	0.0000000001 	0.9998230102 	
58.0000000000 	0.9354412789 	0.0109525230 	0.0424632082 	0.0000032554 	0.0109556537 	0.0000039108 	0.0000032194 	0.0000000001 	0.9998230494 	
58.5000000000 	0.9364796249 	0.0105128189 	0.0423033832 	0.0000030744 	0.0105166084 	0.0000036096 	0.0000030417 	0.0000000000 	0.9998221611 	
59.0000000000 	0.9376270428 	0.0101353954 	0.0419143051 	0.0000029051 	0.0101357117 	0.0000032845 	0.0000028426 	0.0000000001 	0.9998214872 	
59.5000000000 	0.9388364898 	0.0098291928 	0.0413183497 	0.0000027417 	0.0098280498 	0.0000029582 	0.0000026512 	0.0000000000 	0.9998204331 	
60.0000000000 	0.9401004707 	0.0095956494 	0.0405215194 	0.0000025563 	0.0095939630 	0.0000026712 	0.0000024654 	0.0000000000 	0.9998192955 	
60.5000000000 	0.9413867729 	0.0094366897 	0.0395531173 	0.0000023730 	0.0094352120 	0.0000024002 	0.0000022751 	0.0000000000 	0.9998188403 	
61.0000000000 	0.9426630053 	0.0093488586 	0.0384508029 	0.0000021652 	0.0093477092 	0.0000021869 	0.0000020963 	0.0000000001 	0.9998168245 	
61.5000000000 	0.9439150026 	0.0093293426 	0.0372414361 	0.0000019650 	0.0093243569 	0.0000020040 	0.0000019133 	0.0000000001 	0.9998160206 	
62.0000000000 	0.9451084122 	0.0093667639 	0.0359719760 	0.0000017862 	0.0093629862 	0.0000018454 	0.0000017564 	0.0000000001 	0.9998155264 	
62.5000000000 	0.9462219341 	0.0094514072 	0.0346885380 	0.0000016223 	0.0094484014 	0.0000017082 	0.0000016032 	0.0000000001 	0.9998152145 	
63.0000000000 	0.9472432630 	0.0095729413 	0.0334245951 	0.0000014685 	0.0095694610 	0.0000015949 	0.0000014589 	0.0000000002 	0.9998147829 	
63.5000000000 	0.9481607092 	0.0097165773 	0.0322185481 	0.0000013425 	0.0097121932 	0.0000014890 	0.0000013149 	0.0000000001 	0.9998121743 	
64.0000000000 	0.9489615333 	0.0098698512 	0.0311118393 	0.0000011976 	0.0098653307 	0.0000013282 	0.0000011847 	0.0000000000 	0.9998122651 	
64.5000000000 	0.9496591735 	0.0100189092 	0.0301202774 	0.0000011085 	0.0100139994 	0.0000012647 	0.0000010966 	0.0000000000 	0.9998158293 	
65.0000000000 	0.9502292524 	0.0101513652 	0.0292778055 	0.0000010603 	0.0101472947 	0.0000011671 	0.0000010255 	0.0000000000 	0.9998089707 	
65.5000000000 	0.9507030856 	0.0102575666 	0.0285870649 	0.0000009866 	0.0102548488 	0.0000010895 	0.0000009611 	0.0000000000 	0.9998056031 	
66.0000000000 	0.9510864077 	0.0103289813 	0.0280696368 	0.0000009059 	0.0103248392 	0.0000010305 	0.0000009147 	0.0000000001 	0.9998127160 	
66.5000000000 	0.9513865583 	0.0103555794 	0.0277139646 	0.0000008122 	0.0103523969 	0.0000009664 	0.0000008874 	0.0000000000 	0.9998111654 	
