##input
##{
##time_step=0.5;
##time_end = 400;
##Gamma_l =0.50;  //also Gamma_l is square root of the decay
##Gamma_m =0.50;
##Gamma_r =0.50;
##Nbin =2;
##svdcutoff = 1E-7;
##maxnumberofSV = 5000;
##feedback_time = 10; //ATTENTION avoid feedback 2, avoid feedback times uneven
##init_000 = 0.; 
##init_001 = 0.0; 
##init_010 = 0.0; 
##init_011 = 0.; 
##init_100 = 0.0; 
##init_101 = 0.; 
##init_110 = 0.; 
##init_111 = 1.; 
##phi_l = 1.153;  // as multiple of pi
##phi_m = 0.55;  // as multiple of pi
##phi_r = 0.375;  // as multiple of pi
##}
##// =ATTENTION feedback counts between left and right, middle is half the feedback, effective first feedback effect after fb/2
##// =ATTENTION exclude feedback time of 2, i.e. no distance between left - middle - right bin
##// =ATTENTION exclude uneven feedback times of 2n+1, i.e. asymmetric swap necessary between left - middle - right bin
##// =ATTENTION exclude complex valued initial states, not yet implemented
##
##// 1./sqrt(2.) = 0.70710678118
##// 1./sqrt(3.) = 0.57735027
0.0000000000 	 1.0000000000 	 1.0000000000 	 1.0000000000 	 1.0000000000 
0.5000000000 	 0.7701518782 	 0.7701518782 	 0.7701518782 	 1.0000010559 
1.0000000000 	 0.5931336906 	 0.5931336906 	 0.5931336906 	 1.0000015463 
1.5000000000 	 0.4568027699 	 0.4568027496 	 0.4568027639 	 1.0000017752 
2.0000000000 	 0.3518072636 	 0.3518072354 	 0.3518072551 	 1.0000018826 
2.5000000000 	 0.2709448088 	 0.2709447809 	 0.2709447992 	 1.0000019333 
3.0000000000 	 0.2218761190 	 0.2350837381 	 0.2218760945 	 1.0000019633 
3.5000000000 	 0.1910444410 	 0.2205636574 	 0.1910445141 	 1.0000018189 
4.0000000000 	 0.1721929056 	 0.2169128543 	 0.1721888630 	 1.0000015431 
4.5000000000 	 0.1603419055 	 0.2164928260 	 0.1603360239 	 1.0000011380 
5.0000000000 	 0.1519731140 	 0.2149229563 	 0.1519701580 	 1.0000007465 
5.5000000000 	 0.1502710280 	 0.2099433099 	 0.1512828534 	 1.0000001217 
6.0000000000 	 0.1551800656 	 0.2010926034 	 0.1584583611 	 0.9999981676 
6.5000000000 	 0.1588846137 	 0.1892065560 	 0.1640829841 	 0.9999961466 
7.0000000000 	 0.1588431473 	 0.1755877478 	 0.1649095205 	 0.9999934858 
7.5000000000 	 0.1549109217 	 0.1614179359 	 0.1609077970 	 0.9999907856 
8.0000000000 	 0.1474904082 	 0.1479194500 	 0.1542312947 	 0.9999895538 
8.5000000000 	 0.1373715946 	 0.1362913011 	 0.1470736375 	 0.9999877358 
9.0000000000 	 0.1259976394 	 0.1270915774 	 0.1401973756 	 0.9999853020 
9.5000000000 	 0.1147584305 	 0.1207302414 	 0.1341840417 	 0.9999820138 
10.0000000000 	 0.1045997811 	 0.1170405306 	 0.1292407855 	 0.9999796440 
10.5000000000 	 0.0962920821 	 0.1154770751 	 0.1250894870 	 0.9999768575 
11.0000000000 	 0.0901727199 	 0.1153573494 	 0.1215976408 	 0.9999736098 
11.5000000000 	 0.0858453163 	 0.1159820858 	 0.1189071348 	 0.9999717938 
12.0000000000 	 0.0827831257 	 0.1167458891 	 0.1168002008 	 0.9999693102 
12.5000000000 	 0.0803772863 	 0.1172585466 	 0.1148952986 	 0.9999675590 
13.0000000000 	 0.0781292781 	 0.1174618703 	 0.1128155786 	 0.9999656975 
13.5000000000 	 0.0757762222 	 0.1176046515 	 0.1102310374 	 0.9999638534 
14.0000000000 	 0.0732590680 	 0.1179797313 	 0.1069706747 	 0.9999605126 
14.5000000000 	 0.0706143873 	 0.1187796519 	 0.1030846990 	 0.9999585787 
15.0000000000 	 0.0679406631 	 0.1200853586 	 0.0987597252 	 0.9999559199 
15.5000000000 	 0.0653454605 	 0.1218806612 	 0.0942178331 	 0.9999530402 
16.0000000000 	 0.0628891776 	 0.1240599389 	 0.0896299415 	 0.9999509007 
16.5000000000 	 0.0605653107 	 0.1264558419 	 0.0851398825 	 0.9999477789 
17.0000000000 	 0.0583447788 	 0.1288854477 	 0.0808734205 	 0.9999448234 
17.5000000000 	 0.0561796552 	 0.1311622568 	 0.0769428436 	 0.9999422630 
18.0000000000 	 0.0540175482 	 0.1331324523 	 0.0734182128 	 0.9999390722 
18.5000000000 	 0.0518205533 	 0.1346727584 	 0.0703388174 	 0.9999380526 
19.0000000000 	 0.0495589122 	 0.1356853571 	 0.0677094656 	 0.9999347575 
19.5000000000 	 0.0472323920 	 0.1360855660 	 0.0655208502 	 0.9999307376 
20.0000000000 	 0.0448556529 	 0.1358295068 	 0.0637423075 	 0.9999282645 
20.5000000000 	 0.0424767338 	 0.1348648350 	 0.0623338803 	 0.9999256714 
21.0000000000 	 0.0401549156 	 0.1331683997 	 0.0612519380 	 0.9999238440 
21.5000000000 	 0.0379582579 	 0.1307377352 	 0.0604507155 	 0.9999214762 
22.0000000000 	 0.0359464976 	 0.1276024638 	 0.0598858419 	 0.9999189782 
22.5000000000 	 0.0341704286 	 0.1238190797 	 0.0595245764 	 0.9999165640 
23.0000000000 	 0.0326704513 	 0.1194805968 	 0.0593434125 	 0.9999143737 
23.5000000000 	 0.0314669922 	 0.1146945719 	 0.0593279779 	 0.9999119159 
24.0000000000 	 0.0305670473 	 0.1095861935 	 0.0594676120 	 0.9999134196 
24.5000000000 	 0.0299563116 	 0.1042845974 	 0.0597562004 	 0.9999123360 
25.0000000000 	 0.0296057355 	 0.0989255480 	 0.0601826418 	 0.9999102300 
25.5000000000 	 0.0294694340 	 0.0936397859 	 0.0607302522 	 0.9999085907 
26.0000000000 	 0.0294885841 	 0.0885412768 	 0.0613776741 	 0.9999064930 
26.5000000000 	 0.0296013021 	 0.0837294594 	 0.0620961229 	 0.9999037110 
27.0000000000 	 0.0297430394 	 0.0792831411 	 0.0628538627 	 0.9999016301 
27.5000000000 	 0.0298512313 	 0.0752895908 	 0.0636155916 	 0.9998996117 
28.0000000000 	 0.0298723368 	 0.0717857155 	 0.0643440722 	 0.9998974287 
28.5000000000 	 0.0297638362 	 0.0688135645 	 0.0650120034 	 0.9998953060 
29.0000000000 	 0.0294982242 	 0.0663989065 	 0.0655815070 	 0.9998933027 
29.5000000000 	 0.0290641983 	 0.0645483602 	 0.0660370243 	 0.9998911330 
30.0000000000 	 0.0284592001 	 0.0632566231 	 0.0663524951 	 0.9998904548 
30.5000000000 	 0.0277033230 	 0.0625012324 	 0.0665202178 	 0.9998878494 
31.0000000000 	 0.0268207982 	 0.0622507391 	 0.0665281612 	 0.9998866546 
31.5000000000 	 0.0258407009 	 0.0624610073 	 0.0663721697 	 0.9998852951 
32.0000000000 	 0.0247939471 	 0.0630770679 	 0.0660473979 	 0.9998839278 
32.5000000000 	 0.0237134450 	 0.0640317124 	 0.0655595820 	 0.9998818391 
33.0000000000 	 0.0226239386 	 0.0652653292 	 0.0649120930 	 0.9998796207 
33.5000000000 	 0.0215493937 	 0.0667057713 	 0.0641161314 	 0.9998779473 
34.0000000000 	 0.0205074175 	 0.0682949650 	 0.0631765219 	 0.9998763169 
34.5000000000 	 0.0195070750 	 0.0699590728 	 0.0621235072 	 0.9998747899 
35.0000000000 	 0.0185598751 	 0.0716462870 	 0.0609659611 	 0.9998734826 
35.5000000000 	 0.0176719841 	 0.0732965926 	 0.0597320435 	 0.9998725792 
36.0000000000 	 0.0168406123 	 0.0748612705 	 0.0584456874 	 0.9998713967 
36.5000000000 	 0.0160645187 	 0.0763003729 	 0.0571390041 	 0.9998696023 
37.0000000000 	 0.0153415959 	 0.0775687833 	 0.0558395674 	 0.9998682549 
37.5000000000 	 0.0146673605 	 0.0786356908 	 0.0545758265 	 0.9998666272 
38.0000000000 	 0.0140423142 	 0.0794560575 	 0.0533704989 	 0.9998662913 
38.5000000000 	 0.0134533284 	 0.0800258527 	 0.0522466191 	 0.9998653255 
39.0000000000 	 0.0129035196 	 0.0803028239 	 0.0512161984 	 0.9998643823 
39.5000000000 	 0.0123903586 	 0.0802871372 	 0.0503019432 	 0.9998629398 
40.0000000000 	 0.0119100581 	 0.0799809720 	 0.0495143169 	 0.9998617442 
40.5000000000 	 0.0114641888 	 0.0793563515 	 0.0488562735 	 0.9998598237 
41.0000000000 	 0.0110510016 	 0.0784379997 	 0.0483297475 	 0.9998584167 
41.5000000000 	 0.0106780569 	 0.0772379441 	 0.0479397866 	 0.9998575021 
42.0000000000 	 0.0103452300 	 0.0757723764 	 0.0476751309 	 0.9998562946 
42.5000000000 	 0.0100574049 	 0.0740730273 	 0.0475242762 	 0.9998552486 
43.0000000000 	 0.0098213194 	 0.0721642556 	 0.0474893723 	 0.9998543861 
43.5000000000 	 0.0096386020 	 0.0700944413 	 0.0475564959 	 0.9998536026 
44.0000000000 	 0.0095095440 	 0.0679054317 	 0.0477051380 	 0.9998524216 
44.5000000000 	 0.0094343263 	 0.0656334490 	 0.0479245436 	 0.9998515908 
45.0000000000 	 0.0094083645 	 0.0633304819 	 0.0482014088 	 0.9998506806 
45.5000000000 	 0.0094282315 	 0.0610450576 	 0.0485172829 	 0.9998499617 
46.0000000000 	 0.0094845483 	 0.0588204804 	 0.0488597767 	 0.9998495170 
46.5000000000 	 0.0095716660 	 0.0566762331 	 0.0492078743 	 0.9998488303 
47.0000000000 	 0.0096737432 	 0.0547012626 	 0.0495474257 	 0.9998481815 
47.5000000000 	 0.0097823151 	 0.0529119592 	 0.0498617448 	 0.9998483190 
48.0000000000 	 0.0098873872 	 0.0513234655 	 0.0501309248 	 0.9998475440 
48.5000000000 	 0.0099743914 	 0.0499672815 	 0.0503628189 	 0.9998464364 
49.0000000000 	 0.0100356570 	 0.0488655476 	 0.0505365597 	 0.9998460807 
49.5000000000 	 0.0100567133 	 0.0480314263 	 0.0506355724 	 0.9998450199 
50.0000000000 	 0.0100345880 	 0.0474445797 	 0.0506539307 	 0.9998373847 
50.5000000000 	 0.0099652769 	 0.0471167889 	 0.0506037007 	 0.9998363768 
51.0000000000 	 0.0098442985 	 0.0470270405 	 0.0504723493 	 0.9998359689 
51.5000000000 	 0.0096721546 	 0.0471836680 	 0.0502549951 	 0.9998353303 
52.0000000000 	 0.0094514250 	 0.0475367796 	 0.0499600356 	 0.9998348127 
52.5000000000 	 0.0091868049 	 0.0480687345 	 0.0495973403 	 0.9998343830 
53.0000000000 	 0.0088813321 	 0.0487441806 	 0.0491598068 	 0.9998338605 
53.5000000000 	 0.0085422389 	 0.0495472878 	 0.0486555909 	 0.9998335629 
54.0000000000 	 0.0081786993 	 0.0504164940 	 0.0480961940 	 0.9998332611 
54.5000000000 	 0.0077938834 	 0.0513338512 	 0.0474863536 	 0.9998327316 
55.0000000000 	 0.0073981053 	 0.0522678446 	 0.0468458877 	 0.9998323293 
55.5000000000 	 0.0069982312 	 0.0531799801 	 0.0461762421 	 0.9998319892 
56.0000000000 	 0.0066032473 	 0.0540378316 	 0.0454966960 	 0.9998314411 
56.5000000000 	 0.0062172372 	 0.0548132185 	 0.0448100154 	 0.9998315120 
57.0000000000 	 0.0058484053 	 0.0554821432 	 0.0441295340 	 0.9998312650 
57.5000000000 	 0.0055019507 	 0.0560226893 	 0.0434692417 	 0.9998307847 
58.0000000000 	 0.0051793408 	 0.0564269300 	 0.0428395933 	 0.9998305059 
58.5000000000 	 0.0048846655 	 0.0566652861 	 0.0422523084 	 0.9998304935 
59.0000000000 	 0.0046199931 	 0.0567414962 	 0.0417075934 	 0.9998304770 
59.5000000000 	 0.0043867099 	 0.0566457285 	 0.0412171374 	 0.9998315962 
60.0000000000 	 0.0041855907 	 0.0563794878 	 0.0407909925 	 0.9998317774 
60.5000000000 	 0.0040165098 	 0.0559366266 	 0.0404245094 	 0.9998315174 
61.0000000000 	 0.0038787957 	 0.0553374744 	 0.0401263171 	 0.9998315176 
61.5000000000 	 0.0037724564 	 0.0545931648 	 0.0398912374 	 0.9998313291 
62.0000000000 	 0.0036947408 	 0.0537142979 	 0.0397214367 	 0.9998311030 
62.5000000000 	 0.0036437780 	 0.0527189257 	 0.0396079891 	 0.9998310106 
63.0000000000 	 0.0036192535 	 0.0516289807 	 0.0395520223 	 0.9998309575 
63.5000000000 	 0.0036166242 	 0.0504653243 	 0.0395518195 	 0.9998309556 
64.0000000000 	 0.0036358182 	 0.0492519269 	 0.0395879332 	 0.9998309755 
64.5000000000 	 0.0036728826 	 0.0480119914 	 0.0396608752 	 0.9998311469 
65.0000000000 	 0.0037251628 	 0.0467687089 	 0.0397610988 	 0.9998310964 
65.5000000000 	 0.0037892727 	 0.0455443483 	 0.0398794365 	 0.9998309608 
66.0000000000 	 0.0038616368 	 0.0443621226 	 0.0400069833 	 0.9998305344 
66.5000000000 	 0.0039388566 	 0.0432430976 	 0.0401352359 	 0.9998305311 
67.0000000000 	 0.0040171477 	 0.0422055555 	 0.0402555100 	 0.9998305276 
67.5000000000 	 0.0040928385 	 0.0412657974 	 0.0403600746 	 0.9998305237 
68.0000000000 	 0.0041622197 	 0.0404372959 	 0.0404427667 	 0.9998305186 
68.5000000000 	 0.0042221599 	 0.0397305487 	 0.0404965489 	 0.9998305139 
69.0000000000 	 0.0042694413 	 0.0391528617 	 0.0405156708 	 0.9998305094 
69.5000000000 	 0.0043012658 	 0.0387082079 	 0.0404958778 	 0.9998305047 
70.0000000000 	 0.0043152901 	 0.0383971642 	 0.0404341167 	 0.9998305002 
70.5000000000 	 0.0043096472 	 0.0382170643 	 0.0403285137 	 0.9998304959 
71.0000000000 	 0.0042830821 	 0.0381620989 	 0.0401782486 	 0.9998304916 
71.5000000000 	 0.0042349749 	 0.0382235324 	 0.0399836077 	 0.9998304876 
72.0000000000 	 0.0041653590 	 0.0383899917 	 0.0397459748 	 0.9998304841 
72.5000000000 	 0.0040749144 	 0.0386478641 	 0.0394677775 	 0.9998304809 
73.0000000000 	 0.0039649474 	 0.0389817397 	 0.0391523820 	 0.9998304782 
73.5000000000 	 0.0038373460 	 0.0393748401 	 0.0388040149 	 0.9998304759 
74.0000000000 	 0.0036944780 	 0.0398094726 	 0.0384275905 	 0.9998304739 
74.5000000000 	 0.0035391043 	 0.0402675055 	 0.0380285812 	 0.9998304722 
75.0000000000 	 0.0033742989 	 0.0407308400 	 0.0376128717 	 0.9998304707 
75.5000000000 	 0.0032033342 	 0.0411818715 	 0.0371865765 	 0.9998304692 
76.0000000000 	 0.0030295703 	 0.0416039272 	 0.0367558991 	 0.9998304678 
76.5000000000 	 0.0028563499 	 0.0419816558 	 0.0363269915 	 0.9998304662 
77.0000000000 	 0.0026868992 	 0.0423013633 	 0.0359058096 	 0.9998304645 
77.5000000000 	 0.0025242399 	 0.0425512997 	 0.0354979770 	 0.9998304626 
78.0000000000 	 0.0023711137 	 0.0427218853 	 0.0351086565 	 0.9998304604 
78.5000000000 	 0.0022299175 	 0.0428058719 	 0.0347424363 	 0.9998304579 
79.0000000000 	 0.0021026528 	 0.0427984398 	 0.0344032363 	 0.9998304551 
79.5000000000 	 0.0019908919 	 0.0426972305 	 0.0340942317 	 0.9998304521 
80.0000000000 	 0.0018957589 	 0.0425023171 	 0.0338177940 	 0.9998304490 
80.5000000000 	 0.0018179259 	 0.0422161174 	 0.0335754524 	 0.9998304457 
81.0000000000 	 0.0017576219 	 0.0418432525 	 0.0333678767 	 0.9998304425 
81.5000000000 	 0.0017146531 	 0.0413903575 	 0.0331948828 	 0.9998304394 
82.0000000000 	 0.0016884327 	 0.0408658509 	 0.0330554607 	 0.9998304365 
82.5000000000 	 0.0016780175 	 0.0402796692 	 0.0329478226 	 0.9998304339 
83.0000000000 	 0.0016821503 	 0.0396429742 	 0.0328694698 	 0.9998304316 
83.5000000000 	 0.0016993065 	 0.0389678407 	 0.0328172757 	 0.9998304297 
84.0000000000 	 0.0017277421 	 0.0382669331 	 0.0327875815 	 0.9998304282 
84.5000000000 	 0.0017655434 	 0.0375531784 	 0.0327763027 	 0.9998304270 
85.0000000000 	 0.0018106770 	 0.0368394448 	 0.0327790439 	 0.9998304261 
85.5000000000 	 0.0018610387 	 0.0361382317 	 0.0327912173 	 0.9998304254 
86.0000000000 	 0.0019145009 	 0.0354613791 	 0.0328081633 	 0.9998304249 
86.5000000000 	 0.0019689584 	 0.0348198024 	 0.0328252696 	 0.9998304245 
87.0000000000 	 0.0020223719 	 0.0342232564 	 0.0328380843 	 0.9998304242 
87.5000000000 	 0.0020728090 	 0.0336801351 	 0.0328424225 	 0.9998304239 
88.0000000000 	 0.0021184814 	 0.0331973102 	 0.0328344614 	 0.9998304235 
88.5000000000 	 0.0021577794 	 0.0327800097 	 0.0328108235 	 0.9998304232 
89.0000000000 	 0.0021893018 	 0.0324317404 	 0.0327686464 	 0.9998304227 
89.5000000000 	 0.0022118814 	 0.0321542540 	 0.0327056361 	 0.9998304223 
90.0000000000 	 0.0022246060 	 0.0319475557 	 0.0326201054 	 0.9998304217 
90.5000000000 	 0.0022268326 	 0.0318099559 	 0.0325109954 	 0.9998304212 
91.0000000000 	 0.0022181975 	 0.0317381606 	 0.0323778812 	 0.9998304206 
91.5000000000 	 0.0021986185 	 0.0317273993 	 0.0322209609 	 0.9998304200 
92.0000000000 	 0.0021682917 	 0.0317715843 	 0.0320410310 	 0.9998304195 
92.5000000000 	 0.0021276816 	 0.0318634991 	 0.0318394467 	 0.9998304189 
93.0000000000 	 0.0020775043 	 0.0319950079 	 0.0316180708 	 0.9998304184 
93.5000000000 	 0.0020187055 	 0.0321572829 	 0.0313792113 	 0.9998304180 
94.0000000000 	 0.0019524318 	 0.0323410414 	 0.0311255505 	 0.9998304176 
94.5000000000 	 0.0018799983 	 0.0325367878 	 0.0308600676 	 0.9998304174 
95.0000000000 	 0.0018028514 	 0.0327350535 	 0.0305859557 	 0.9998304172 
95.5000000000 	 0.0017225289 	 0.0329266299 	 0.0303065374 	 0.9998304172 
96.0000000000 	 0.0016406180 	 0.0331027867 	 0.0300251795 	 0.9998304172 
96.5000000000 	 0.0015587135 	 0.0332554731 	 0.0297452091 	 0.9998304173 
97.0000000000 	 0.0014783760 	 0.0333774953 	 0.0294698337 	 0.9998304175 
97.5000000000 	 0.0014010919 	 0.0334626674 	 0.0292020667 	 0.9998304176 
98.0000000000 	 0.0013282365 	 0.0335059325 	 0.0289446600 	 0.9998304178 
98.5000000000 	 0.0012610415 	 0.0335034522 	 0.0287000448 	 0.9998304181 
99.0000000000 	 0.0012005671 	 0.0334526625 	 0.0284702822 	 0.9998304183 
99.5000000000 	 0.0011476791 	 0.0333522967 	 0.0282570247 	 0.9998304184 
100.0000000000 	 0.0011030326 	 0.0332023750 	 0.0280614877 	 0.9998304186 
100.5000000000 	 0.0010670620 	 0.0330041625 	 0.0278844341 	 0.9998304187 
101.0000000000 	 0.0010399769 	 0.0327600982 	 0.0277261690 	 0.9998304188 
101.5000000000 	 0.0010217642 	 0.0324736964 	 0.0275865462 	 0.9998304188 
102.0000000000 	 0.0010121961 	 0.0321494254 	 0.0274649862 	 0.9998304189 
102.5000000000 	 0.0010108438 	 0.0317925664 	 0.0273605030 	 0.9998304189 
103.0000000000 	 0.0010170952 	 0.0314090572 	 0.0272717408 	 0.9998304188 
103.5000000000 	 0.0010301770 	 0.0310053241 	 0.0271970184 	 0.9998304188 
104.0000000000 	 0.0010491801 	 0.0305881088 	 0.0271343808 	 0.9998304187 
104.5000000000 	 0.0010730434 	 0.0301642719 	 0.0270816211 	 0.9998303217 
105.0000000000 	 0.0011007517 	 0.0297407037 	 0.0270364776 	 0.9998301245 
105.5000000000 	 0.0011311247 	 0.0293240228 	 0.0269964868 	 0.9998301245 
106.0000000000 	 0.0011629970 	 0.0289205149 	 0.0269591867 	 0.9998301245 
106.5000000000 	 0.0011952145 	 0.0285359656 	 0.0269221436 	 0.9998301245 
107.0000000000 	 0.0012266603 	 0.0281755358 	 0.0268830104 	 0.9998301245 
107.5000000000 	 0.0012562798 	 0.0278436495 	 0.0268395814 	 0.9998301245 
108.0000000000 	 0.0012831074 	 0.0275439161 	 0.0267898412 	 0.9998301245 
108.5000000000 	 0.0013062820 	 0.0272790641 	 0.0267320092 	 0.9998301244 
109.0000000000 	 0.0013250658 	 0.0270509028 	 0.0266645756 	 0.9998301244 
109.5000000000 	 0.0013388565 	 0.0268603073 	 0.0265863307 	 0.9998301244 
110.0000000000 	 0.0013472007 	 0.0267072264 	 0.0264963815 	 0.9998301244 
110.5000000000 	 0.0013497961 	 0.0265907132 	 0.0263941679 	 0.9998301244 
111.0000000000 	 0.0013464939 	 0.0265089761 	 0.0262794648 	 0.9998301244 
111.5000000000 	 0.0013372985 	 0.0264594494 	 0.0261523763 	 0.9998301244 
112.0000000000 	 0.0013223617 	 0.0264388799 	 0.0260133227 	 0.9998301245 
112.5000000000 	 0.0013019743 	 0.0264434279 	 0.0258630205 	 0.9998301245 
113.0000000000 	 0.0012765555 	 0.0264687798 	 0.0257024547 	 0.9998301245 
113.5000000000 	 0.0012466378 	 0.0265102679 	 0.0255328464 	 0.9998301245 
114.0000000000 	 0.0012128514 	 0.0265629961 	 0.0253556154 	 0.9998301245 
114.5000000000 	 0.0011759055 	 0.0266219661 	 0.0251723384 	 0.9998301245 
115.0000000000 	 0.0011365691 	 0.0266822038 	 0.0249847055 	 0.9998301245 
115.5000000000 	 0.0010956499 	 0.0267388795 	 0.0247944754 	 0.9998301245 
116.0000000000 	 0.0010539742 	 0.0267874222 	 0.0246034291 	 0.9998301245 
116.5000000000 	 0.0010123655 	 0.0268236231 	 0.0244133262 	 0.9998301245 
117.0000000000 	 0.0009716248 	 0.0268437274 	 0.0242258620 	 0.9998301245 
117.5000000000 	 0.0009325111 	 0.0268445123 	 0.0240426277 	 0.9998301244 
118.0000000000 	 0.0008957244 	 0.0268233493 	 0.0238650752 	 0.9998301244 
118.5000000000 	 0.0008618898 	 0.0267782495 	 0.0236944851 	 0.9998301244 
119.0000000000 	 0.0008315442 	 0.0267078928 	 0.0235319412 	 0.9998301244 
119.5000000000 	 0.0008051255 	 0.0266116387 	 0.0233783103 	 0.9998301244 
120.0000000000 	 0.0007829650 	 0.0264895209 	 0.0232342269 	 0.9998301244 
120.5000000000 	 0.0007652817 	 0.0263422247 	 0.0231000859 	 0.9998301244 
121.0000000000 	 0.0007521808 	 0.0261710499 	 0.0229760401 	 0.9998301244 
121.5000000000 	 0.0007436539 	 0.0259778590 	 0.0228620038 	 0.9998301244 
122.0000000000 	 0.0007395829 	 0.0257650136 	 0.0227576630 	 0.9998301244 
122.5000000000 	 0.0007397462 	 0.0255353004 	 0.0226624896 	 0.9998301244 
123.0000000000 	 0.0007438273 	 0.0252918491 	 0.0225757614 	 0.9998301244 
123.5000000000 	 0.0007514254 	 0.0250380446 	 0.0224965861 	 0.9998301244 
124.0000000000 	 0.0007620683 	 0.0247774354 	 0.0224239279 	 0.9998301244 
124.5000000000 	 0.0007752260 	 0.0245136411 	 0.0223566379 	 0.9998301244 
125.0000000000 	 0.0007903258 	 0.0242502609 	 0.0222934854 	 0.9998301244 
125.5000000000 	 0.0008067679 	 0.0239907863 	 0.0222331906 	 0.9998301244 
