##input
##{
##time_step=0.5;
##time_end = 400;
##Gamma_l =0.50;  //also Gamma_l is square root of the decay
##Gamma_m =0.50;
##Gamma_r =0.50;
##Nbin =2;
##svdcutoff = 1E-7;
##maxnumberofSV = 5000;
##feedback_time = 10; //ATTENTION avoid feedback 2, avoid feedback times uneven
##init_000 = 0.; 
##init_001 = 0.0; 
##init_010 = 0.0; 
##init_011 = 0.; 
##init_100 = 0.0; 
##init_101 = 0.; 
##init_110 = 0.; 
##init_111 = 1.; 
##phi_l = 1.153;  // as multiple of pi
##phi_m = 0.55;  // as multiple of pi
##phi_r = 0.375;  // as multiple of pi
##}
##// =ATTENTION feedback counts between left and right, middle is half the feedback, effective first feedback effect after fb/2
##// =ATTENTION exclude feedback time of 2, i.e. no distance between left - middle - right bin
##// =ATTENTION exclude uneven feedback times of 2n+1, i.e. asymmetric swap necessary between left - middle - right bin
##// =ATTENTION exclude complex valued initial states, not yet implemented
##
##// 1./sqrt(2.) = 0.70710678118
##// 1./sqrt(3.) = 0.57735027
0.0000000000 	0.0000000000 	0.0000000000 	0.0000000000 	0.0000000000 	0.0000000000 	0.0000000000 	0.0000000000 	1.0000000000 	1.0000000000 	
0.5000000000 	0.0121429101 	0.0406874917 	0.0406874917 	0.1363312842 	0.0406874917 	0.1363312842 	0.1363312842 	0.4568018181 	1.0000010559 	
1.0000000000 	0.0673530795 	0.0981879209 	0.0981879209 	0.1431389344 	0.0981879209 	0.1431389344 	0.1431389344 	0.2086679010 	1.0000015463 	
1.5000000000 	0.1602783327 	0.1347861647 	0.1347861447 	0.1133483632 	0.1347861689 	0.1133483594 	0.1133483651 	0.0953198766 	1.0000017752 	
2.0000000000 	0.2723418570 	0.1478135367 	0.1478135104 	0.0802257150 	0.1478135429 	0.0802257106 	0.0802257171 	0.0435422929 	1.0000018826 	
2.5000000000 	0.3875099803 	0.1440132439 	0.1440132204 	0.0535206800 	0.1440132514 	0.0535206768 	0.0535206820 	0.0198901986 	1.0000019333 	
3.0000000000 	0.4522137905 	0.1325881787 	0.1530903925 	0.0402334826 	0.1395850040 	0.0405312521 	0.0332366818 	0.0085231812 	1.0000019633 	
3.5000000000 	0.4904456930 	0.1203079625 	0.1630446337 	0.0351590887 	0.1363224739 	0.0323620321 	0.0191445043 	0.0032154308 	1.0000018189 	
4.0000000000 	0.5155814145 	0.1106339406 	0.1673435614 	0.0342497210 	0.1306622807 	0.0262110529 	0.0142254235 	0.0010941484 	1.0000015431 	
4.5000000000 	0.5353477440 	0.1038733813 	0.1654604537 	0.0349776534 	0.1231983936 	0.0210887930 	0.0156585228 	0.0003961961 	1.0000011380 	
5.0000000000 	0.5533082437 	0.0995114376 	0.1596727495 	0.0355352017 	0.1155612683 	0.0166968406 	0.0194883270 	0.0002266781 	1.0000007465 	
5.5000000000 	0.5591091009 	0.1036793208 	0.1576546022 	0.0292860698 	0.1102911863 	0.0169772037 	0.0216623789 	0.0013402591 	1.0000001217 	
6.0000000000 	0.5554773480 	0.1135859370 	0.1514758680 	0.0242789489 	0.1114503526 	0.0183919266 	0.0231362379 	0.0022015486 	0.9999981676 	
6.5000000000 	0.5545941749 	0.1225747526 	0.1439107991 	0.0200318064 	0.1146944952 	0.0189261680 	0.0227136934 	0.0025502572 	0.9999961466 	
7.0000000000 	0.5604962180 	0.1281370273 	0.1361795933 	0.0163374998 	0.1178862939 	0.0178861987 	0.0205218600 	0.0025487948 	0.9999934858 	
7.5000000000 	0.5734453294 	0.1298367084 	0.1286198705 	0.0131779556 	0.1197416584 	0.0155491535 	0.0172761303 	0.0023439795 	0.9999907856 	
8.0000000000 	0.5910348159 	0.1288241554 	0.1216585756 	0.0109815987 	0.1196932309 	0.0125179016 	0.0133716367 	0.0019076390 	0.9999895538 	
8.5000000000 	0.6106586983 	0.1264419640 	0.1156789950 	0.0098364840 	0.1171502579 	0.0094455146 	0.0094261472 	0.0013496750 	0.9999877358 	
9.0000000000 	0.6310791359 	0.1230450865 	0.1105169989 	0.0093464413 	0.1118317795 	0.0069377227 	0.0063600121 	0.0008681251 	0.9999853020 	
9.5000000000 	0.6504915035 	0.1190494543 	0.1063458360 	0.0093367895 	0.1044389446 	0.0052718701 	0.0045216880 	0.0005259278 	0.9999820138 	
10.0000000000 	0.6675733141 	0.1148455815 	0.1032832080 	0.0096777593 	0.0961154713 	0.0044047464 	0.0037668650 	0.0003126984 	0.9999796440 	
10.5000000000 	0.6815295823 	0.1106315846 	0.1015240029 	0.0099996057 	0.0880678276 	0.0042707880 	0.0037659577 	0.0001875088 	0.9999768575 	
11.0000000000 	0.6918455841 	0.1068484221 	0.1011608184 	0.0099460653 	0.0812295027 	0.0046927516 	0.0041400638 	0.0001104019 	0.9999736098 	
11.5000000000 	0.6985747576 	0.1041208472 	0.1019251627 	0.0095057099 	0.0760742138 	0.0052198893 	0.0044905248 	0.0000606884 	0.9999717938 	
12.0000000000 	0.7025769530 	0.1024818406 	0.1033651816 	0.0087622093 	0.0726382588 	0.0055263686 	0.0045887160 	0.0000297822 	0.9999693102 	
12.5000000000 	0.7051434764 	0.1015838096 	0.1050330664 	0.0078299204 	0.0705131934 	0.0054685330 	0.0043825243 	0.0000130356 	0.9999675590 	
13.0000000000 	0.7074046869 	0.1009097440 	0.1066841166 	0.0068378719 	0.0691275426 	0.0050618536 	0.0039337728 	0.0000061091 	0.9999656975 	
13.5000000000 	0.7100387399 	0.0999084110 	0.1083291428 	0.0059113375 	0.0680062977 	0.0044057534 	0.0033586357 	0.0000055354 	0.9999638534 	
14.0000000000 	0.7133125044 	0.0982078948 	0.1100728656 	0.0051081797 	0.0668146573 	0.0036457247 	0.0027898105 	0.0000088755 	0.9999605126 	
14.5000000000 	0.7171842431 	0.0957159446 	0.1120163177 	0.0044276860 	0.0653518378 	0.0029269014 	0.0023214812 	0.0000141669 	0.9999585787 	
15.0000000000 	0.7214035427 	0.0925403293 	0.1142213511 	0.0038500337 	0.0635766765 	0.0023500128 	0.0019946244 	0.0000193494 	0.9999559199 	
15.5000000000 	0.7256737110 	0.0888777358 	0.1167002805 	0.0033558524 	0.0615596859 	0.0019612463 	0.0018015297 	0.0000229986 	0.9999530402 	
16.0000000000 	0.7298054431 	0.0849210808 	0.1194072753 	0.0029279239 	0.0594083224 	0.0017561156 	0.0016999185 	0.0000248212 	0.9999509007 	
16.5000000000 	0.7337249774 	0.0808596055 	0.1222379381 	0.0025599472 	0.0572120371 	0.0016953171 	0.0016329439 	0.0000250127 	0.9999477789 	
17.0000000000 	0.7374107369 	0.0768785704 	0.1250582354 	0.0022525019 	0.0550515871 	0.0017184813 	0.0015508435 	0.0000238670 	0.9999448234 	
17.5000000000 	0.7408937957 	0.0731551016 	0.1277095036 	0.0020042069 	0.0529692337 	0.0017618752 	0.0014268864 	0.0000216599 	0.9999422630 	
18.0000000000 	0.7442485395 	0.0698177466 	0.1300455199 	0.0018097180 	0.0509681016 	0.0017722323 	0.0012586985 	0.0000185159 	0.9999390722 	
18.5000000000 	0.7475850278 	0.0669419581 	0.1319312812 	0.0016592323 	0.0490156120 	0.0017226964 	0.0010673142 	0.0000149307 	0.9999380526 	
19.0000000000 	0.7510357452 	0.0645452513 	0.1332540611 	0.0015407877 	0.0470562702 	0.0016121336 	0.0008792153 	0.0000112930 	0.9999347575 	
19.5000000000 	0.7547272240 	0.0626132000 	0.1339171058 	0.0014408158 	0.0450459115 	0.0014588361 	0.0007196460 	0.0000079984 	0.9999307376 	
20.0000000000 	0.7587465776 	0.0611042078 	0.1338739249 	0.0013479012 	0.0429629390 	0.0012850333 	0.0006025154 	0.0000051653 	0.9999282645 	
20.5000000000 	0.7631624383 	0.0599560848 	0.1330722214 	0.0012581931 	0.0408258103 	0.0011165030 	0.0005313211 	0.0000030993 	0.9999256714 	
21.0000000000 	0.7679807322 	0.0591167995 	0.1315054957 	0.0011659010 	0.0386904050 	0.0009675076 	0.0004952732 	0.0000017298 	0.9999238440 	
21.5000000000 	0.7731738056 	0.0585340887 	0.1291825835 	0.0010727405 	0.0366328571 	0.0008429895 	0.0004815144 	0.0000008968 	0.9999214762 	
22.0000000000 	0.7786801900 	0.0581641722 	0.1261496922 	0.0009784263 	0.0347293469 	0.0007428054 	0.0004739072 	0.0000004381 	0.9999189782 	
22.5000000000 	0.7844108935 	0.0579767943 	0.1224714637 	0.0008869839 	0.0330492456 	0.0006605509 	0.0004603848 	0.0000002473 	0.9999165640 	
23.0000000000 	0.7902453500 	0.0579534272 	0.1182433636 	0.0008017816 	0.0316470123 	0.0005879874 	0.0004352353 	0.0000002163 	0.9999143737 	
23.5000000000 	0.7960635220 	0.0580836139 	0.1135746277 	0.0007231601 	0.0305492587 	0.0005209494 	0.0003965296 	0.0000002544 	0.9999119159 	
24.0000000000 	0.8017473913 	0.0583615154 	0.1085857370 	0.0006517286 	0.0297642643 	0.0004540550 	0.0003484149 	0.0000003130 	0.9999134196 	
24.5000000000 	0.8071896357 	0.0587788935 	0.1034003288 	0.0005871664 	0.0292694295 	0.0003897800 	0.0002967415 	0.0000003606 	0.9999123360 	
25.0000000000 	0.8123028928 	0.0593245873 	0.0981493607 	0.0005276538 	0.0290271772 	0.0003300248 	0.0002481575 	0.0000003760 	0.9999102300 	
25.5000000000 	0.8170257181 	0.0599812431 	0.0929604730 	0.0004717225 	0.0289849242 	0.0002769194 	0.0002072232 	0.0000003671 	0.9999085907 	
26.0000000000 	0.8213288586 	0.0607242791 	0.0879452243 	0.0004195469 	0.0290785684 	0.0002335101 	0.0001761677 	0.0000003379 	0.9999064930 	
26.5000000000 	0.8252052084 	0.0615223068 	0.0832032307 	0.0003716629 	0.0292448795 	0.0002018569 	0.0001542696 	0.0000002962 	0.9999037110 	
27.0000000000 	0.8286692674 	0.0623463673 	0.0788156038 	0.0003273522 	0.0294229633 	0.0001798909 	0.0001399328 	0.0000002524 	0.9999016301 	
27.5000000000 	0.8317287477 	0.0631600130 	0.0748714569 	0.0002881628 	0.0295540550 	0.0001672052 	0.0001297605 	0.0000002106 	0.9998996117 	
28.0000000000 	0.8344302022 	0.0639303570 	0.0714108767 	0.0002536560 	0.0295912615 	0.0001598925 	0.0001210161 	0.0000001667 	0.9998974287 	
28.5000000000 	0.8367973146 	0.0646322079 	0.0684771397 	0.0002248076 	0.0294973535 	0.0001548655 	0.0001114949 	0.0000001223 	0.9998953060 	
29.0000000000 	0.8388658768 	0.0652311786 	0.0660974004 	0.0002006228 	0.0292476364 	0.0001497044 	0.0001008822 	0.0000000011 	0.9998933027 	
29.5000000000 	0.8406531626 	0.0657145016 	0.0642788765 	0.0001803941 	0.0288329807 	0.0001421280 	0.0000890889 	0.0000000008 	0.9998911330 	
30.0000000000 	0.8421960274 	0.0660558785 	0.0630153739 	0.0001639749 	0.0282492850 	0.0001326409 	0.0000772735 	0.0000000007 	0.9998904548 	
30.5000000000 	0.8435014577 	0.0662482895 	0.0622844733 	0.0001503058 	0.0275152478 	0.0001216220 	0.0000664528 	0.0000000004 	0.9998878494 	
31.0000000000 	0.8445921772 	0.0662802280 	0.0620551986 	0.0001382527 	0.0266538301 	0.0001096802 	0.0000572875 	0.0000000003 	0.9998866546 	
31.5000000000 	0.8454869123 	0.0661470804 	0.0622832338 	0.0001273677 	0.0256925737 	0.0000977214 	0.0000504056 	0.0000000003 	0.9998852951 	
32.0000000000 	0.8462148367 	0.0658433833 	0.0629143557 	0.0001174050 	0.0246620304 	0.0000866095 	0.0000453071 	0.0000000001 	0.9998839278 	
32.5000000000 	0.8468041154 	0.0653743516 	0.0638817179 	0.0001082092 	0.0235946385 	0.0000770212 	0.0000417852 	0.0000000001 	0.9998818391 	
33.0000000000 	0.8472856760 	0.0647439159 	0.0651268861 	0.0000992041 	0.0225157266 	0.0000689730 	0.0000392389 	0.0000000001 	0.9998796207 	
33.5000000000 	0.8476969985 	0.0639629478 	0.0665775874 	0.0000910198 	0.0214500660 	0.0000621637 	0.0000371640 	0.0000000001 	0.9998779473 	
34.0000000000 	0.8480714611 	0.0630375305 	0.0681769980 	0.0000829097 	0.0204162786 	0.0000560816 	0.0000350572 	0.0000000000 	0.9998763169 	
34.5000000000 	0.8484435518 	0.0619977090 	0.0698510051 	0.0000754491 	0.0194241074 	0.0000503490 	0.0000326185 	0.0000000001 	0.9998747899 	
35.0000000000 	0.8488443516 	0.0608529746 	0.0715479911 	0.0000682903 	0.0184851732 	0.0000446962 	0.0000300056 	0.0000000001 	0.9998734826 	
35.5000000000 	0.8492998604 	0.0596313001 	0.0732077422 	0.0000616923 	0.0176057750 	0.0000390510 	0.0000271580 	0.0000000001 	0.9998725792 	
36.0000000000 	0.8498373416 	0.0583566389 	0.0747814937 	0.0000553102 	0.0167824075 	0.0000337382 	0.0000244666 	0.0000000000 	0.9998713967 	
36.5000000000 	0.8504657889 	0.0570609386 	0.0762291686 	0.0000491875 	0.0160136240 	0.0000288779 	0.0000220167 	0.0000000001 	0.9998696023 	
37.0000000000 	0.8512061406 	0.0557716642 	0.0775055071 	0.0000433472 	0.0152971110 	0.0000245559 	0.0000199289 	0.0000000001 	0.9998682549 	
37.5000000000 	0.8520646231 	0.0545170272 	0.0785797879 	0.0000378284 	0.0146283153 	0.0000209708 	0.0000180744 	0.0000000001 	0.9998666272 	
38.0000000000 	0.8530651987 	0.0533192292 	0.0794066543 	0.0000328948 	0.0140074310 	0.0000183748 	0.0000165084 	0.0000000000 	0.9998662913 	
38.5000000000 	0.8541994234 	0.0522017714 	0.0799823632 	0.0000284391 	0.0134218695 	0.0000164085 	0.0000150504 	0.0000000001 	0.9998653255 	
39.0000000000 	0.8554947122 	0.0511768556 	0.0802647981 	0.0000244969 	0.0128751448 	0.0000148458 	0.0000135288 	0.0000000001 	0.9998643823 	
39.5000000000 	0.8569303521 	0.0502670982 	0.0802539680 	0.0000211629 	0.0123646702 	0.0000136821 	0.0000120062 	0.0000000001 	0.9998629398 	
40.0000000000 	0.8584981174 	0.0494831697 	0.0799520743 	0.0000183247 	0.0118866628 	0.0000128224 	0.0000105728 	0.0000000001 	0.9998617442 	
40.5000000000 	0.8602201253 	0.0488283794 	0.0793312202 	0.0000159100 	0.0114429836 	0.0000119839 	0.0000092211 	0.0000000001 	0.9998598237 	
41.0000000000 	0.8620727092 	0.0483046185 	0.0784161760 	0.0000139114 	0.0110318718 	0.0000112175 	0.0000079123 	0.0000000001 	0.9998584167 	
41.5000000000 	0.8640313649 	0.0479169082 	0.0772188692 	0.0000123030 	0.0106607095 	0.0000105753 	0.0000067719 	0.0000000001 	0.9998575021 	
42.0000000000 	0.8660900457 	0.0476544788 	0.0757556237 	0.0000109164 	0.0103296580 	0.0000097356 	0.0000058362 	0.0000000001 	0.9998562946 	
42.5000000000 	0.8682242121 	0.0475057325 	0.0740581254 	0.0000097736 	0.0100435066 	0.0000087700 	0.0000051282 	0.0000000001 	0.9998552486 	
43.0000000000 	0.8704008845 	0.0474725554 	0.0721507742 	0.0000088525 	0.0098087263 	0.0000079643 	0.0000046288 	0.0000000001 	0.9998543861 	
43.5000000000 	0.8725835698 	0.0475412749 	0.0700821605 	0.0000079953 	0.0096270909 	0.0000072256 	0.0000042854 	0.0000000000 	0.9998536026 	
44.0000000000 	0.8747501632 	0.0476912786 	0.0678941114 	0.0000073243 	0.0094990131 	0.0000065350 	0.0000039959 	0.0000000000 	0.9998524216 	
44.5000000000 	0.8768757150 	0.0479118633 	0.0656229471 	0.0000067391 	0.0094246223 	0.0000059412 	0.0000037628 	0.0000000000 	0.9998515908 	
45.0000000000 	0.8789255115 	0.0481898522 	0.0633207556 	0.0000061968 	0.0093994751 	0.0000053598 	0.0000035295 	0.0000000000 	0.9998506806 	
45.5000000000 	0.8808730567 	0.0485068992 	0.0610361173 	0.0000056569 	0.0094202214 	0.0000047267 	0.0000032834 	0.0000000000 	0.9998499617 	
46.0000000000 	0.8826970288 	0.0488504840 	0.0588123048 	0.0000051512 	0.0094773824 	0.0000041415 	0.0000030244 	0.0000000001 	0.9998495170 	
46.5000000000 	0.8844041462 	0.0491995562 	0.0566687492 	0.0000047128 	0.0095652896 	0.0000036052 	0.0000027710 	0.0000000001 	0.9998488303 	
47.0000000000 	0.8859357125 	0.0495399959 	0.0546944543 	0.0000042756 	0.0096680564 	0.0000031541 	0.0000025326 	0.0000000001 	0.9998481815 	
47.5000000000 	0.8873011878 	0.0498551509 	0.0529058047 	0.0000038605 	0.0097772877 	0.0000027334 	0.0000022940 	0.0000000001 	0.9998483190 	
48.0000000000 	0.8885136381 	0.0501251242 	0.0513179338 	0.0000034608 	0.0098829764 	0.0000023398 	0.0000020710 	0.0000000000 	0.9998475440 	
48.5000000000 	0.8895489029 	0.0503577399 	0.0499623389 	0.0000030633 	0.0099704965 	0.0000020157 	0.0000018792 	0.0000000000 	0.9998464364 	
49.0000000000 	0.8904144868 	0.0505321082 	0.0488611356 	0.0000026931 	0.0100321797 	0.0000017584 	0.0000017189 	0.0000000000 	0.9998460807 	
49.5000000000 	0.8911268290 	0.0506316229 	0.0480274661 	0.0000023884 	0.0100535811 	0.0000015605 	0.0000015711 	0.0000000006 	0.9998450199 	
50.0000000000 	0.8917091945 	0.0506504498 	0.0474410582 	0.0000020942 	0.0100317744 	0.0000013864 	0.0000014270 	0.0000000003 	0.9998373847 	
50.5000000000 	0.8921549916 	0.0506005999 	0.0471136693 	0.0000018390 	0.0099627347 	0.0000012616 	0.0000012804 	0.0000000001 	0.9998363768 	
51.0000000000 	0.8924961884 	0.0504695883 	0.0470242891 	0.0000016046 	0.0098419955 	0.0000011563 	0.0000011467 	0.0000000001 	0.9998359689 	
51.5000000000 	0.8927279712 	0.0502525507 	0.0471812685 	0.0000013853 	0.0096700814 	0.0000010591 	0.0000010142 	0.0000000000 	0.9998353303 	
52.0000000000 	0.8928896502 	0.0499578556 	0.0475346765 	0.0000012054 	0.0094495527 	0.0000009746 	0.0000008976 	0.0000000001 	0.9998348127 	
52.5000000000 	0.8929842399 	0.0495953996 	0.0480668914 	0.0000010472 	0.0091851156 	0.0000008935 	0.0000007958 	0.0000000001 	0.9998343830 	
53.0000000000 	0.8930509660 	0.0491580854 	0.0487425716 	0.0000009054 	0.0088798125 	0.0000008160 	0.0000007036 	0.0000000000 	0.9998338605 	
53.5000000000 	0.8930906051 	0.0486540513 	0.0495458678 	0.0000007998 	0.0085408789 	0.0000007398 	0.0000006202 	0.0000000000 	0.9998335629 	
54.0000000000 	0.8931438114 	0.0480948194 	0.0504152291 	0.0000007018 	0.0081774635 	0.0000006728 	0.0000005630 	0.0000000000 	0.9998332611 	
54.5000000000 	0.8932204021 	0.0474851080 	0.0513327154 	0.0000006228 	0.0077927475 	0.0000006229 	0.0000005130 	0.0000000000 	0.9998327316 	
55.0000000000 	0.8933220802 	0.0468447683 	0.0522668197 	0.0000005559 	0.0073970727 	0.0000005635 	0.0000004690 	0.0000000000 	0.9998323293 	
55.5000000000 	0.8934789675 	0.0461752368 	0.0531790617 	0.0000004920 	0.0069972915 	0.0000005133 	0.0000004264 	0.0000000000 	0.9998319892 	
56.0000000000 	0.8936949645 	0.0454957873 	0.0540369993 	0.0000004427 	0.0066023916 	0.0000004661 	0.0000003896 	0.0000000000 	0.9998314411 	
56.5000000000 	0.8939922238 	0.0448091915 	0.0548124585 	0.0000004010 	0.0062164551 	0.0000004229 	0.0000003591 	0.0000000000 	0.9998315120 	
57.0000000000 	0.8943722484 	0.0441287983 	0.0554814517 	0.0000003612 	0.0058477006 	0.0000003744 	0.0000003302 	0.0000000002 	0.9998312650 	
57.5000000000 	0.8948378631 	0.0434685802 	0.0560220592 	0.0000003314 	0.0055013220 	0.0000003300 	0.0000002986 	0.0000000001 	0.9998307847 	
58.0000000000 	0.8953855021 	0.0428390028 	0.0564263586 	0.0000003017 	0.0051787824 	0.0000002887 	0.0000002696 	0.0000000001 	0.9998305059 	
58.5000000000 	0.8960289977 	0.0422517855 	0.0566647723 	0.0000002725 	0.0048841739 	0.0000002503 	0.0000002412 	0.0000000001 	0.9998304935 	
59.0000000000 	0.8967620744 	0.0417071273 	0.0567410368 	0.0000002454 	0.0046195585 	0.0000002206 	0.0000002140 	0.0000000000 	0.9998304770 	
59.5000000000 	0.8975826274 	0.0412167265 	0.0566453145 	0.0000002180 	0.0043863209 	0.0000001930 	0.0000001960 	0.0000000000 	0.9998315962 	
60.0000000000 	0.8984762399 	0.0407906339 	0.0563791197 	0.0000001932 	0.0041852505 	0.0000001653 	0.0000001748 	0.0000000000 	0.9998317774 	
60.5000000000 	0.8994542481 	0.0404242690 	0.0559363634 	0.0000001270 	0.0040162603 	0.0000001134 	0.0000001362 	0.0000000000 	0.9998315174 	
61.0000000000 	0.9004892449 	0.0401261279 	0.0553372397 	0.0000001095 	0.0038785906 	0.0000000798 	0.0000001253 	0.0000000000 	0.9998315176 	
61.5000000000 	0.9015747423 	0.0398910840 	0.0545929550 	0.0000000913 	0.0037722759 	0.0000000621 	0.0000001185 	0.0000000000 	0.9998313291 	
62.0000000000 	0.9027008685 	0.0397213085 	0.0537141085 	0.0000000768 	0.0036945767 	0.0000000514 	0.0000001127 	0.0000000000 	0.9998311030 	
62.5000000000 	0.9038605284 	0.0396078830 	0.0527187605 	0.0000000607 	0.0036436280 	0.0000000454 	0.0000001046 	0.0000000000 	0.9998310106 	
63.0000000000 	0.9050308879 	0.0395519315 	0.0516288357 	0.0000000489 	0.0036191154 	0.0000000419 	0.0000000962 	0.0000000000 	0.9998309575 	
63.5000000000 	0.9061973513 	0.0395517408 	0.0504652002 	0.0000000392 	0.0036164996 	0.0000000396 	0.0000000850 	0.0000000000 	0.9998309556 	
64.0000000000 	0.9073554400 	0.0395878651 	0.0492518235 	0.0000000288 	0.0036357042 	0.0000000393 	0.0000000746 	0.0000000000 	0.9998309755 	
64.5000000000 	0.9084855218 	0.0396608159 	0.0480119066 	0.0000000200 	0.0036727785 	0.0000000392 	0.0000000648 	0.0000000000 	0.9998311469 	
65.0000000000 	0.9095762335 	0.0397610475 	0.0467686394 	0.0000000131 	0.0037250683 	0.0000000381 	0.0000000564 	0.0000000000 	0.9998310964 	
65.5000000000 	0.9106179050 	0.0398794355 	0.0455443469 	0.0000000007 	0.0037892716 	0.0000000004 	0.0000000007 	0.0000000000 	0.9998309608 	
66.0000000000 	0.9115997931 	0.0400069823 	0.0443621217 	0.0000000005 	0.0038616360 	0.0000000005 	0.0000000003 	0.0000000000 	0.9998305344 	
